MaCK,Ngay,GiaMoCua,GiaCaoNhat,GiaThapNhat,GiaDongCua,KhoiLuongGD,GiaTran,GiaSan,GiaThamChieu,TangGiam,%,GDThoaThuan,NNMua,NNBan
PPG,08/11/2010,24.3,24.8,24.0,24.7,103800,24.80,21.60,23.2,1.50,6.47,0,0,0
PPG,08/10/2010,23.5,24.5,21.9,23.2,221300,24.90,21.70,23.3,-0.10,-0.43,0,0,0
PPG,08/09/2010,21.9,23.4,21.9,23.3,158000,23.40,20.40,21.9,1.40,6.39,0,0,0
PPG,08/06/2010,22.5,22.5,21.5,21.9,129800,23.60,20.60,22.1,-0.20,-0.90,0,0,0
PPG,08/05/2010,22.6,23.0,21.7,22.1,43100,23.40,20.40,21.9,0.20,0.91,0,0,0
PPG,08/04/2010,22.9,22.9,21.6,21.9,106900,24.80,21.60,23.2,-1.30,-5.60,0,0,0
PPG,08/03/2010,23.7,24.0,22.2,23.2,47900,25.20,22.00,23.6,-0.40,-1.69,0,0,0
PPG,08/02/2010,24.2,24.2,23.1,23.6,72200,26.40,23.00,24.7,-1.10,-4.45,0,0,0
PPG,07/30/2010,25.0,25.4,24.3,24.7,47800,26.20,22.80,24.5,0.20,0.82,0,0,0
PPG,07/29/2010,24.5,24.8,24.1,24.5,49200,26.20,22.80,24.5,0.00,0.00,0,0,0
PPG,07/28/2010,25.9,25.9,24.0,24.5,66500,27.40,24.00,25.7,-1.20,-4.67,0,0,0
PPG,07/27/2010,25.0,26.2,25.0,25.7,186300,26.20,22.80,24.5,1.20,4.90,0,0,0
PPG,07/26/2010,25.0,25.0,24.3,24.5,30600,26.50,23.10,24.8,-0.30,-1.21,0,0,0
PPG,07/23/2010,24.8,25.0,24.6,24.8,39500,27.00,23.60,25.3,-0.50,-1.98,0,0,0
PPG,07/22/2010,26.0,26.0,24.7,25.3,50900,28.00,24.40,26.2,-0.90,-3.44,0,0,0
PPG,07/21/2010,27.2,27.2,25.7,26.2,167800,27.30,23.90,25.6,0.60,2.34,0,0,0
PPG,07/20/2010,25.3,26.0,25.3,25.6,126400,27.00,23.60,25.3,0.30,1.19,0,0,0
PPG,07/19/2010,25.3,26.0,24.6,25.3,89800,27.40,24.00,25.7,-0.40,-1.56,8200,0,0
PPG,07/16/2010,26.0,26.0,25.1,25.7,69000,28.00,24.40,26.2,-0.50,-1.91,0,0,0
PPG,07/15/2010,26.0,26.9,25.7,26.2,172900,27.40,24.00,25.7,0.50,1.95,0,0,0
PPG,07/14/2010,25.5,26.2,25.1,25.7,136500,26.50,23.10,24.8,0.90,3.63,0,0,0
PPG,07/13/2010,25.0,25.5,24.0,24.8,74600,25.60,22.40,24.0,0.80,3.33,0,0,0
PPG,07/12/2010,23.4,24.0,23.4,24.0,41800,25.30,22.10,23.7,0.30,1.27,0,0,0
PPG,07/09/2010,23.5,24.2,23.5,23.7,50300,25.80,22.60,24.2,-0.50,-2.07,0,0,0
PPG,07/08/2010,24.0,25.3,23.8,24.2,35500,25.60,22.40,24.0,0.20,0.83,0,0,0
PPG,07/07/2010,25.0,25.0,23.4,24.0,67400,25.80,22.60,24.2,-0.20,-0.83,0,0,0
PPG,07/06/2010,25.2,25.2,24.0,24.2,35800,26.50,23.10,24.8,-0.60,-2.42,0,0,0
PPG,07/05/2010,24.0,25.2,24.0,24.8,69900,25.20,22.00,23.6,1.20,5.08,0,0,0
PPG,07/02/2010,23.6,24.5,22.9,23.6,83800,25.20,22.00,23.6,0.00,0.00,0,0,2000
PPG,07/01/2010,23.5,24.5,22.6,23.6,84600,25.70,22.50,24.1,-0.50,-2.07,0,0,0
PPG,06/30/2010,24.0,24.4,23.9,24.1,133500,27.30,23.90,25.6,-1.50,-5.86,0,0,0
PPG,06/29/2010,26.0,26.0,25.2,25.6,70600,27.70,24.10,25.9,-0.30,-1.16,0,0,0
PPG,06/28/2010,26.3,26.3,25.5,25.9,51800,28.10,24.50,26.3,-0.40,-1.52,0,0,0
PPG,06/25/2010,26.5,27.0,25.7,26.3,155700,28.30,24.70,26.5,-0.20,-0.75,0,0,0
PPG,06/24/2010,25.9,26.6,24.9,26.5,253800,26.60,23.20,24.9,1.60,6.43,0,0,0
PPG,06/23/2010,24.5,26.0,24.4,24.9,141600,28.00,24.40,26.2,-1.30,-4.96,0,0,0
PPG,06/22/2010,28.0,28.0,25.7,26.2,194300,29.50,25.70,27.6,-1.40,-5.07,0,0,0
PPG,06/21/2010,26.2,28.0,26.2,27.6,170700,28.00,24.40,26.2,1.40,5.34,0,0,4000
PPG,06/18/2010,27.5,27.7,25.0,26.2,150800,27.70,24.10,25.9,0.30,1.16,0,0,0
PPG,06/17/2010,26.0,26.0,25.0,25.9,556100,26.00,22.60,24.3,1.60,6.58,0,0,15000
PPG,06/16/2010,24.0,24.5,23.1,24.3,240800,24.50,21.30,22.9,1.40,6.11,0,0,3000
PPG,06/15/2010,23.3,23.8,22.5,22.9,64300,24.60,21.40,23.0,-0.10,-0.43,0,0,0
PPG,06/14/2010,21.8,23.2,21.7,23.0,190000,23.20,20.20,21.7,1.30,5.99,0,0,1000
PPG,06/11/2010,22.5,22.5,21.4,21.7,52600,22.80,20.00,21.4,0.30,1.40,0,0,1000
PPG,06/10/2010,21.8,21.8,21.0,21.4,51700,23.30,20.30,21.8,-0.40,-1.83,0,0,0
PPG,06/09/2010,22.0,22.5,21.1,21.8,134500,22.50,19.70,21.1,0.70,3.32,0,0,0
PPG,06/08/2010,20.7,22.1,20.7,21.1,162700,23.70,20.70,22.2,-1.10,-4.95,0,1000,0
PPG,06/07/2010,22.5,22.5,22.2,22.2,91600,25.40,22.20,23.8,-1.60,-6.72,0,0,0
PPG,06/04/2010,24.2,24.2,22.8,23.8,301300,24.20,21.20,22.7,1.10,4.85,0,0,3300
PPG,06/03/2010,22.7,22.7,22.7,22.7,25100,22.70,19.90,21.3,1.40,6.57,0,0,1000
PPG,06/02/2010,19.5,21.8,19.5,21.3,222100,21.80,19.00,20.4,0.90,4.41,0,0,10000
PPG,06/01/2010,20.6,21.5,20.0,20.4,291400,23.00,20.00,21.5,-1.10,-5.12,0,0,1000
PPG,05/31/2010,23.0,23.0,20.2,21.5,169500,23.00,20.00,21.5,0.00,0.00,0,0,6000
PPG,05/28/2010,21.5,21.5,21.5,21.5,55600,21.50,18.70,20.1,1.40,6.97,0,0,1000
PPG,05/27/2010,20.1,20.2,19.4,20.1,154100,20.20,17.60,18.9,1.20,6.35,0,0,1000
PPG,05/26/2010,18.9,18.9,18.2,18.9,133500,18.90,16.50,17.7,1.20,6.78,0,0,800
PPG,05/25/2010,16.2,17.8,16.1,17.7,261700,17.80,15.60,16.7,1.00,5.99,0,0,0
PPG,05/24/2010,15.8,17.6,15.8,16.7,126300,18.00,15.80,16.9,-0.20,-1.18,0,5600,0
PPG,05/21/2010,16.9,16.9,16.9,16.9,61000,19.30,16.90,18.1,-1.20,-6.63,0,1000,1000
PPG,05/20/2010,17.5,19.8,17.3,18.1,143400,19.90,17.30,18.6,-0.50,-2.69,0,11200,0
PPG,05/19/2010,18.9,19.0,18.6,18.6,88600,21.40,18.60,20.0,-1.40,-7.00,0,200,0
PPG,05/18/2010,21.2,21.2,19.8,20.0,96100,22.60,19.80,21.2,-1.20,-5.66,0,0,1000
PPG,05/17/2010,19.1,21.9,19.1,21.2,295800,21.90,19.10,20.5,0.70,3.41,0,0,2000
PPG,05/14/2010,20.5,20.5,20.5,20.5,15300,23.50,20.50,22.0,-1.50,-6.82,5000,100,0
PPG,05/13/2010,22.0,22.0,22.0,22.0,4000,25.20,22.00,23.6,-1.60,-6.78,0,0,0
PPG,05/12/2010,23.6,23.6,23.6,23.6,1500,27.00,23.60,25.3,-1.70,-6.72,0,0,0
PPG,05/11/2010,26.4,26.4,23.0,25.3,186900,26.40,23.00,24.7,0.60,2.43,0,0,3000
PPG,05/10/2010,24.7,24.7,24.2,24.7,463500,24.70,21.50,23.1,1.60,6.93,0,0,15300
PPG,05/07/2010,23.1,23.1,23.1,23.1,742700,23.10,20.10,21.6,1.50,6.94,0,0,14000
PPG,05/06/2010,21.6,21.6,21.6,21.6,16500,21.60,18.80,20.2,1.40,6.93,70000,0,1000
PPG,05/05/2010,20.2,20.2,20.2,20.2,69800,20.20,17.60,18.9,1.30,6.88,0,0,2000
PPG,05/04/2010,18.9,18.9,18.9,18.9,26300,18.90,16.50,17.7,1.20,6.78,0,0,300
PPG,04/29/2010,17.7,17.7,17.7,17.7,33300,17.70,15.50,16.6,1.10,6.63,0,0,7100
PPG,04/28/2010,16.6,16.6,16.6,16.6,36600,16.60,14.60,15.6,1.00,6.41,90000,0,2000
PPG,04/27/2010,14.3,15.6,14.3,15.6,242500,15.60,13.60,14.6,1.00,6.85,0,0,2000
PPG,04/26/2010,14.5,14.8,14.5,14.6,12600,15.70,13.70,14.7,-0.10,-0.68,0,0,0
PPG,04/22/2010,15.5,15.5,14.5,14.7,20400,16.00,14.00,15.0,-0.30,-2.00,0,0,0
PPG,04/21/2010,14.9,15.7,14.8,15.0,53400,15.90,13.90,14.9,0.10,0.67,0,200,0
PPG,04/20/2010,15.0,15.0,14.5,14.9,19600,15.10,13.30,14.2,0.70,4.93,0,0,0
PPG,04/19/2010,15.5,15.5,14.0,14.2,21400,15.80,13.80,14.8,-0.60,-4.05,0,0,0
PPG,04/16/2010,15.0,15.1,14.4,14.8,21900,15.30,13.30,14.3,0.50,3.50,0,500,0
PPG,04/15/2010,15.0,15.2,14.2,14.3,69700,16.20,14.20,15.2,-0.90,-5.92,0,1300,0
PPG,04/14/2010,15.0,15.2,15.0,15.2,800,16.00,14.00,15.0,0.20,1.33,0,0,0
PPG,04/13/2010,15.4,15.4,14.5,15.0,18900,16.40,14.40,15.4,-0.40,-2.60,0,2000,0
PPG,04/12/2010,15.0,15.4,14.5,15.4,168800,15.40,13.40,14.4,1.00,6.94,0,500,500
PPG,04/09/2010,14.2,14.9,14.0,14.4,87600,14.90,13.10,14.0,0.40,2.86,0,0,200
PPG,04/08/2010,14.3,14.3,13.9,14.0,12100,14.90,13.10,14.0,0.00,0.00,0,1000,0
PPG,04/07/2010,14.3,14.3,13.9,14.0,800,14.80,13.00,13.9,0.10,0.72,0,0,0
PPG,04/06/2010,14.1,14.1,13.5,13.9,18800,14.80,13.00,13.9,0.00,0.00,0,1500,0
PPG,04/05/2010,14.0,14.0,13.7,13.9,21900,14.30,12.50,13.4,0.50,3.73,0,0,0
PPG,04/02/2010,13.2,13.9,13.2,13.4,2500,14.10,12.30,13.2,0.20,1.52,0,0,0
PPG,04/01/2010,13.9,13.9,13.1,13.2,4900,14.10,12.30,13.2,0.00,0.00,0,100,0
PPG,03/31/2010,14.3,14.3,13.0,13.2,3700,14.30,12.50,13.4,-0.20,-1.49,0,0,0
PPG,03/30/2010,13.3,13.8,13.2,13.4,900,14.40,12.60,13.5,-0.10,-0.74,0,0,0
PPG,03/29/2010,14.0,14.0,13.2,13.5,5600,14.10,12.30,13.2,0.30,2.27,0,0,0
PPG,03/26/2010,13.1,13.7,13.1,13.2,8600,14.30,12.50,13.4,-0.20,-1.49,0,100,0
PPG,03/25/2010,13.9,14.0,13.3,13.4,3600,14.70,12.90,13.8,-0.40,-2.90,0,100,0
PPG,03/24/2010,13.6,14.4,13.6,13.8,7500,14.50,12.70,13.6,0.20,1.47,0,0,0
PPG,03/23/2010,14.7,14.7,13.2,13.6,6500,14.80,13.00,13.9,-0.30,-2.16,0,0,100
PPG,03/22/2010,14.9,14.9,13.8,13.9,16700,14.90,13.10,14.0,-0.10,-0.71,0,0,0
PPG,03/19/2010,14.2,14.2,13.9,14.0,14700,14.90,13.10,14.0,0.00,0.00,0,100,0
PPG,03/18/2010,14.2,14.2,13.8,14.0,9400,14.90,13.10,14.0,0.00,0.00,0,0,0
PPG,03/17/2010,15.3,15.3,13.8,14.0,26800,15.50,13.50,14.5,-0.50,-3.45,0,2000,0
PPG,03/16/2010,16.0,16.0,14.5,14.5,20300,16.50,14.50,15.5,-1.00,-6.45,0,0,0
PPG,03/15/2010,16.3,16.3,15.0,15.5,44300,16.30,14.30,15.3,0.20,1.31,0,0,0
PPG,03/12/2010,15.2,15.3,15.2,15.3,75800,15.30,13.30,14.3,1.00,6.99,0,0,0
PPG,03/11/2010,14.3,14.3,14.0,14.3,60400,14.30,12.50,13.4,0.90,6.72,0,0,0
PPG,03/10/2010,13.2,13.6,13.2,13.4,1300,14.50,12.70,13.6,-0.20,-1.47,0,0,0
PPG,03/09/2010,12.7,14.0,12.7,13.6,32000,14.00,12.20,13.1,0.50,3.82,0,0,0
PPG,03/08/2010,13.0,13.2,12.9,13.1,17100,13.90,12.10,13.0,0.10,0.77,0,0,0
PPG,03/05/2010,13.4,13.4,12.9,13.0,500,13.90,12.10,13.0,0.00,0.00,0,0,0
PPG,03/04/2010,13.0,13.0,12.9,13.0,11400,13.30,11.70,12.5,0.50,4.00,0,0,0
PPG,03/03/2010,12.5,12.6,12.4,12.5,6300,13.60,12.00,12.8,-0.30,-2.34,0,0,0
PPG,03/02/2010,12.5,13.0,12.4,12.8,25700,13.00,11.40,12.2,0.60,4.92,0,200,0
PPG,03/01/2010,12.1,12.8,12.0,12.2,2900,13.80,12.00,12.9,-0.70,-5.43,0,0,0
PPG,02/26/2010,12.9,12.9,12.9,12.9,1000,13.40,11.80,12.6,0.30,2.38,0,0,0
PPG,02/25/2010,13.0,13.0,12.5,12.6,1200,13.60,12.00,12.8,-0.20,-1.56,0,300,0
PPG,02/24/2010,13.0,13.0,12.4,12.8,4800,13.50,11.90,12.7,0.10,0.79,0,0,0
PPG,02/23/2010,12.4,13.0,12.4,12.7,6800,13.80,12.00,12.9,-0.20,-1.55,0,0,0
PPG,02/22/2010,13.0,13.0,12.9,12.9,1300,13.50,11.90,12.7,0.20,1.57,0,100,0
PPG,02/12/2010,12.5,13.0,12.5,12.7,4400,13.30,11.70,12.5,0.20,1.60,0,2200,0
PPG,02/11/2010,12.5,12.6,12.5,12.5,4700,13.30,11.70,12.5,0.00,0.00,0,0,0
PPG,02/10/2010,12.5,13.0,12.5,12.5,6100,13.30,11.70,12.5,0.00,0.00,0,0,0
PPG,02/09/2010,12.5,12.5,12.5,12.5,800,13.90,12.10,13.0,-0.50,-3.85,0,0,0
PPG,02/08/2010,13.0,13.0,13.0,13.0,100,13.40,11.80,12.6,0.40,3.17,0,0,0
PPG,02/05/2010,12.5,12.9,12.5,12.6,3600,14.00,12.20,13.1,-0.50,-3.82,0,0,0
PPG,02/04/2010,12.9,13.3,12.9,13.1,24200,13.40,11.80,12.6,0.50,3.97,0,0,0
PPG,02/03/2010,12.5,12.8,12.4,12.6,17400,13.50,11.90,12.7,-0.10,-0.79,0,0,0
PPG,02/02/2010,12.7,12.7,12.7,12.7,100,13.10,11.50,12.3,0.40,3.25,0,0,0
PPG,02/01/2010,12.0,12.5,12.0,12.3,8100,12.80,11.20,12.0,0.30,2.50,0,0,0
PPG,01/29/2010,12.6,12.6,11.9,12.0,6700,13.40,11.80,12.6,-0.60,-4.76,0,0,0
PPG,01/28/2010,0.0,0.0,0.0,12.6,0,13.40,11.80,12.6,0.00,0.00,0,0,0
PPG,01/27/2010,12.5,13.0,12.5,12.6,600,14.10,12.30,13.2,-0.60,-4.55,0,0,0
PPG,01/26/2010,13.2,13.3,13.0,13.2,10500,13.30,11.70,12.5,0.70,5.60,0,100,0
PPG,01/25/2010,12.6,12.6,11.7,12.5,11100,12.70,11.10,11.9,0.60,5.04,0,0,0
PPG,01/22/2010,12.0,12.2,11.8,11.9,5900,12.60,11.00,11.8,0.10,0.85,0,0,0
PPG,01/21/2010,12.3,12.3,11.5,11.8,17100,13.10,11.50,12.3,-0.50,-4.07,0,0,0
PPG,01/20/2010,12.3,12.5,12.2,12.3,3400,13.80,12.00,12.9,-0.60,-4.65,0,0,0
PPG,01/19/2010,11.8,13.1,11.8,12.9,23400,13.40,11.80,12.6,0.30,2.38,0,0,0
PPG,01/18/2010,14.0,14.0,13.4,13.6,49400,15.10,13.30,14.2,-0.60,-4.23,0,1000,0
PPG,01/15/2010,14.9,14.9,13.8,14.2,25400,15.80,13.80,14.8,-0.60,-4.05,0,0,0
PPG,01/14/2010,15.0,15.4,14.5,14.8,6800,15.50,13.50,14.5,0.30,2.07,0,0,0
PPG,01/13/2010,14.7,14.7,13.9,14.5,73300,14.70,12.90,13.8,0.70,5.07,0,0,100
PPG,01/12/2010,13.7,13.8,13.2,13.8,101600,13.80,12.00,12.9,0.90,6.98,0,0,0
PPG,01/11/2010,13.0,13.1,12.5,12.9,20800,14.10,12.30,13.2,-0.30,-2.27,0,100,0
PPG,01/08/2010,13.5,13.5,12.9,13.2,29800,13.90,12.10,13.0,0.20,1.54,0,500,0
PPG,01/07/2010,12.8,13.3,12.7,13.0,15100,14.10,12.30,13.2,-0.20,-1.52,0,0,0
PPG,01/06/2010,13.0,13.7,13.0,13.2,20000,14.60,12.80,13.7,-0.50,-3.65,0,500,0
PPG,01/05/2010,14.0,14.0,13.1,13.7,66100,14.00,12.20,13.1,0.60,4.58,0,300,300
PPG,01/04/2010,13.0,13.1,13.0,13.1,59000,13.10,11.50,12.3,0.80,6.50,0,0,0
PPG,12/31/2009,12.7,12.7,11.9,12.3,16700,13.20,11.60,12.4,-0.10,-0.81,0,300,0
PPG,12/30/2009,12.5,12.8,12.0,12.4,22000,13.10,11.50,12.3,0.10,0.81,0,400,0
PPG,12/29/2009,12.8,13.0,12.0,12.3,27900,13.60,12.00,12.8,-0.50,-3.91,0,0,0
PPG,12/28/2009,13.3,13.8,12.3,12.8,11300,14.00,12.20,13.1,-0.30,-2.29,0,0,0
PPG,12/25/2009,13.0,13.3,12.6,13.1,65300,13.30,11.70,12.5,0.60,4.80,0,200,200
PPG,12/24/2009,12.5,12.6,11.6,12.5,44700,12.60,11.00,11.8,0.70,5.93,0,0,0
PPG,12/23/2009,11.7,12.1,11.7,11.8,23000,12.50,10.90,11.7,0.10,0.85,0,0,0
PPG,12/22/2009,11.0,12.2,11.0,11.7,22400,12.40,10.80,11.6,0.10,0.86,0,500,0
PPG,12/21/2009,11.0,11.7,11.0,11.6,26000,11.70,10.30,11.0,0.60,5.45,0,1100,0
PPG,12/18/2009,10.5,11.1,10.5,11.0,20600,11.10,9.70,10.4,0.60,5.77,0,0,0
PPG,12/17/2009,10.3,10.9,10.2,10.4,9300,11.60,10.20,10.9,-0.50,-4.59,0,0,0
PPG,12/16/2009,11.0,11.0,10.9,10.9,8200,12.50,10.90,11.7,-0.80,-6.84,0,0,0
PPG,12/15/2009,12.2,12.2,11.5,11.7,13200,12.30,10.70,11.5,0.20,1.74,0,0,0
PPG,12/14/2009,11.5,11.7,11.1,11.5,11800,11.70,10.30,11.0,0.50,4.55,0,0,0
PPG,12/11/2009,11.0,11.0,10.8,11.0,4500,12.10,10.70,11.4,-0.40,-3.51,0,0,0
PPG,12/10/2009,12.0,12.0,11.3,11.4,13500,12.40,10.80,11.6,-0.20,-1.72,0,0,0
PPG,12/09/2009,12.3,12.3,11.6,11.6,8700,13.10,11.50,12.3,-0.70,-5.69,0,0,0
PPG,12/08/2009,12.4,12.4,12.3,12.3,20200,13.20,11.60,12.4,-0.10,-0.81,0,2000,0
PPG,12/07/2009,12.5,12.5,12.4,12.4,8800,13.20,11.60,12.4,0.00,0.00,0,0,0
PPG,12/04/2009,12.1,12.8,12.1,12.4,5100,13.10,11.50,12.3,0.10,0.81,0,0,0
PPG,12/03/2009,12.7,12.7,12.0,12.3,24200,13.50,11.90,12.7,-0.40,-3.15,0,100,0
PPG,12/02/2009,13.2,13.2,12.5,12.7,12000,14.30,12.50,13.4,-0.70,-5.22,0,2100,0
PPG,12/01/2009,13.2,13.4,13.2,13.4,28400,13.40,11.80,12.6,0.80,6.35,0,0,0
PPG,11/30/2009,11.8,13.1,11.8,12.6,34800,13.10,11.50,12.3,0.30,2.44,0,9200,0
PPG,11/27/2009,11.8,13.2,11.8,12.3,36500,13.40,11.80,12.6,-0.30,-2.38,0,3700,0
PPG,11/26/2009,12.6,12.8,12.6,12.6,12900,14.40,12.60,13.5,-0.90,-6.67,0,500,0
PPG,11/25/2009,14.0,14.0,13.2,13.5,18200,15.00,13.20,14.1,-0.60,-4.26,0,6800,0
PPG,11/24/2009,15.0,15.0,14.0,14.1,9300,15.50,13.50,14.5,-0.40,-2.76,0,1100,0
PPG,11/23/2009,14.9,14.9,14.2,14.5,8200,16.00,14.00,15.0,-0.50,-3.33,0,0,0
PPG,11/20/2009,15.1,15.1,15.0,15.0,3200,16.20,14.20,15.2,-0.20,-1.32,0,0,0
PPG,11/19/2009,15.1,15.6,15.1,15.2,16000,16.10,14.10,15.1,0.10,0.66,0,100,0
PPG,11/18/2009,15.5,15.5,15.0,15.1,17400,16.50,14.50,15.5,-0.40,-2.58,0,0,0
PPG,11/17/2009,15.6,15.9,15.0,15.5,32600,16.40,14.40,15.4,0.10,0.65,0,400,0
PPG,11/16/2009,15.3,15.8,15.3,15.4,13500,16.30,14.30,15.3,0.10,0.65,0,0,0
PPG,11/13/2009,15.2,15.5,15.2,15.3,6600,16.40,14.40,15.4,-0.10,-0.65,0,0,0
PPG,11/12/2009,15.4,15.5,15.2,15.4,33300,15.50,13.50,14.5,0.90,6.21,0,0,0
PPG,11/11/2009,14.2,15.0,14.0,14.5,26400,15.30,13.30,14.3,0.20,1.40,0,500,0
PPG,11/10/2009,14.5,14.5,14.3,14.3,19800,16.30,14.30,15.3,-1.00,-6.54,0,1000,0
PPG,11/09/2009,15.4,15.5,15.2,15.3,22900,17.40,15.20,16.3,-1.00,-6.13,0,1000,0
PPG,11/06/2009,17.0,17.0,15.7,16.3,20800,17.10,14.90,16.0,0.30,1.88,0,1000,0
PPG,11/05/2009,15.5,16.3,15.5,16.0,42900,16.30,14.30,15.3,0.70,4.58,0,1000,0
PPG,11/04/2009,15.4,15.7,15.0,15.3,13100,16.40,14.40,15.4,-0.10,-0.65,0,0,0
PPG,11/03/2009,16.0,16.0,15.0,15.4,12500,16.50,14.50,15.5,-0.10,-0.65,0,0,1000
PPG,11/02/2009,15.5,17.0,15.2,15.5,31700,17.40,15.20,16.3,-0.80,-4.91,0,0,2000
PPG,10/30/2009,16.3,16.3,16.0,16.3,30000,16.30,14.30,15.3,1.00,6.54,0,0,1000
PPG,10/29/2009,15.2,16.1,15.2,15.3,93000,17.40,15.20,16.3,-1.00,-6.13,0,700,4000
PPG,10/28/2009,16.1,17.0,16.1,16.3,120700,18.50,16.10,17.3,-1.00,-5.78,0,500,0
PPG,10/27/2009,17.3,17.3,17.3,17.3,15800,19.70,17.30,18.5,-1.20,-6.49,0,200,0
PPG,10/26/2009,18.8,18.8,18.4,18.5,31600,21.00,18.40,19.7,-1.20,-6.09,0,700,0
PPG,10/23/2009,20.1,20.1,17.7,19.7,185300,20.10,17.50,18.8,0.90,4.79,0,0,8000
PPG,10/22/2009,18.8,18.8,18.8,18.8,70800,18.80,16.40,17.6,1.20,6.82,0,0,7000
PPG,10/21/2009,17.0,18.0,16.9,17.6,186500,18.00,15.80,16.9,0.70,4.14,0,0,4400
PPG,10/20/2009,16.5,17.0,16.3,16.9,121700,17.00,14.80,15.9,1.00,6.29,0,0,5000
PPG,10/19/2009,16.6,17.0,15.5,15.9,82800,17.70,15.50,16.6,-0.70,-4.22,0,0,0
PPG,10/16/2009,18.1,18.1,15.9,16.6,129100,18.10,15.90,17.0,-0.40,-2.35,0,1000,0
PPG,10/15/2009,17.0,17.0,17.0,17.0,95900,17.00,14.80,15.9,1.10,6.92,0,0,7000
PPG,10/14/2009,15.2,16.2,15.2,15.9,198600,16.20,14.20,15.2,0.70,4.61,0,300,0
PPG,10/13/2009,15.4,15.4,14.8,15.2,196700,15.40,13.40,14.4,0.80,5.56,0,0,3000
PPG,10/12/2009,14.5,14.6,14.0,14.4,156900,14.60,12.80,13.7,0.70,5.11,0,0,7000
PPG,10/09/2009,13.1,14.0,13.1,13.7,164400,14.00,12.20,13.1,0.60,4.58,0,200,0
PPG,10/08/2009,13.0,13.5,13.0,13.1,16200,13.90,12.10,13.0,0.10,0.77,0,600,0
PPG,10/07/2009,13.6,13.6,12.8,13.0,33400,13.60,12.00,12.8,0.20,1.56,0,2000,0
PPG,10/06/2009,12.8,12.9,12.7,12.8,20700,13.50,11.90,12.7,0.10,0.79,0,0,0
PPG,10/05/2009,12.7,12.8,12.6,12.7,12000,13.40,11.80,12.6,0.10,0.79,0,0,2000
PPG,10/02/2009,12.8,13.0,12.3,12.6,48700,14.10,12.30,13.2,-0.60,-4.55,0,0,0
PPG,10/01/2009,13.0,13.6,13.0,13.2,38300,14.30,12.50,13.4,-0.20,-1.49,0,0,0
PPG,09/30/2009,13.5,13.6,13.1,13.4,15100,14.50,12.70,13.6,-0.20,-1.47,0,0,0
PPG,09/29/2009,13.7,14.0,13.5,13.6,66500,14.60,12.80,13.7,-0.10,-0.73,0,0,0
PPG,09/28/2009,14.5,14.5,13.3,13.7,61900,15.10,13.30,14.2,-0.50,-3.52,0,0,3000
PPG,09/25/2009,13.5,14.4,13.5,14.2,66000,14.40,12.60,13.5,0.70,5.19,0,0,2000
PPG,09/24/2009,13.4,14.3,13.4,13.5,71500,15.40,13.40,14.4,-0.90,-6.25,0,0,0
PPG,09/23/2009,14.3,14.4,14.0,14.4,119400,14.40,12.60,13.5,0.90,6.67,0,0,2000
PPG,09/22/2009,13.0,13.9,12.8,13.5,140300,13.90,12.10,13.0,0.50,3.85,0,0,500
PPG,09/21/2009,12.7,13.1,12.7,13.0,56500,13.50,11.90,12.7,0.30,2.36,0,0,0
PPG,09/18/2009,12.4,12.8,12.3,12.7,42500,13.40,11.80,12.6,0.10,0.79,0,0,0
PPG,09/17/2009,12.5,12.8,12.0,12.6,60000,13.20,11.60,12.4,0.20,1.61,0,500,0
PPG,09/16/2009,12.5,12.6,12.3,12.4,29400,13.40,11.80,12.6,-0.20,-1.59,0,0,0
PPG,09/15/2009,12.7,12.8,12.4,12.6,23600,13.40,11.80,12.6,0.00,0.00,0,1500,0
PPG,09/14/2009,12.8,12.8,12.4,12.6,23800,13.60,12.00,12.8,-0.20,-1.56,0,0,0
PPG,09/11/2009,12.8,13.0,12.6,12.8,25400,13.40,11.80,12.6,0.20,1.59,0,0,0
PPG,09/10/2009,12.8,12.8,12.5,12.6,13800,13.60,12.00,12.8,-0.20,-1.56,0,0,0
PPG,09/09/2009,12.5,12.8,12.5,12.8,62300,12.80,11.20,12.0,0.80,6.67,0,0,3000
PPG,09/08/2009,11.7,12.4,11.6,12.0,41800,12.40,10.80,11.6,0.40,3.45,0,4800,0
PPG,09/07/2009,11.6,12.0,11.4,11.6,14800,12.90,11.30,12.1,-0.50,-4.13,0,0,0
PPG,09/04/2009,12.3,12.6,11.8,12.1,28800,13.10,11.50,12.3,-0.20,-1.63,0,0,0
PPG,09/03/2009,12.2,13.0,12.0,12.3,30300,13.60,12.00,12.8,-0.50,-3.91,0,0,0
PPG,09/01/2009,13.4,13.4,12.5,12.8,8200,13.90,12.10,13.0,-0.20,-1.54,0,0,0
PPG,08/31/2009,13.1,13.1,12.7,13.0,75300,13.10,11.50,12.3,0.70,5.69,0,0,0
PPG,08/28/2009,12.1,12.4,12.0,12.3,52300,12.40,10.80,11.6,0.70,6.03,0,0,0
PPG,08/27/2009,11.6,11.9,11.5,11.6,29200,12.40,10.80,11.6,0.00,0.00,0,0,0
PPG,08/26/2009,11.6,11.7,11.4,11.6,11500,12.10,10.70,11.4,0.20,1.75,0,0,0
PPG,08/25/2009,11.6,11.6,11.3,11.4,23200,12.40,10.80,11.6,-0.20,-1.72,0,0,0
PPG,08/24/2009,11.3,11.9,11.2,11.6,38700,12.00,10.60,11.3,0.30,2.65,0,600,0
PPG,08/21/2009,11.3,11.4,11.1,11.3,22600,11.90,10.50,11.2,0.10,0.89,0,1000,0
PPG,08/20/2009,11.0,11.3,11.0,11.2,23200,11.80,10.40,11.1,0.10,0.90,0,900,0
PPG,08/19/2009,10.9,11.7,10.9,11.1,54500,11.70,10.30,11.0,0.10,0.91,0,500,0
PPG,08/18/2009,10.9,11.0,10.9,11.0,16100,11.60,10.20,10.9,0.10,0.92,0,0,0
PPG,08/17/2009,10.9,11.0,10.8,10.9,5000,11.60,10.20,10.9,0.00,0.00,0,700,0
PPG,08/14/2009,11.1,11.1,10.8,10.9,9000,11.80,10.40,11.1,-0.20,-1.80,0,0,0
PPG,08/13/2009,11.2,11.2,11.0,11.1,25600,11.80,10.40,11.1,0.00,0.00,0,1100,0
PPG,08/12/2009,11.5,11.5,11.0,11.1,9700,11.80,10.40,11.1,0.00,0.00,0,0,0
PPG,08/11/2009,11.2,11.4,10.8,11.1,26900,11.70,10.30,11.0,0.10,0.91,0,2000,0
PPG,08/10/2009,11.0,11.0,10.8,11.0,11100,11.70,10.30,11.0,0.00,0.00,0,0,0
PPG,08/07/2009,11.0,11.0,11.0,11.0,2100,11.70,10.30,11.0,0.00,0.00,0,0,0
PPG,08/06/2009,10.9,11.1,10.9,11.0,10400,11.50,10.10,10.8,0.20,1.85,0,0,0
PPG,08/05/2009,10.9,10.9,10.7,10.8,5900,11.40,10.00,10.7,0.10,0.93,0,0,0
PPG,08/04/2009,10.7,10.8,10.7,10.7,17200,11.40,10.00,10.7,0.00,0.00,0,0,0
PPG,08/03/2009,11.5,11.5,10.6,10.7,10800,11.60,10.20,10.9,-0.20,-1.83,5000,0,0
PPG,07/31/2009,10.9,11.2,10.7,10.9,6500,11.40,10.00,10.7,0.20,1.87,0,1000,0
PPG,07/30/2009,10.7,10.8,10.6,10.7,7100,11.40,10.00,10.7,0.00,0.00,0,0,0
PPG,07/29/2009,10.9,11.0,10.5,10.7,25900,11.70,10.30,11.0,-0.30,-2.73,0,0,0
PPG,07/28/2009,11.9,11.9,10.8,11.0,24000,12.40,10.80,11.6,-0.60,-5.17,0,0,0
PPG,07/27/2009,12.3,12.3,11.3,11.6,20200,12.30,10.70,11.5,0.10,0.87,5000,0,0
PPG,07/24/2009,10.8,11.5,10.8,11.5,18600,11.50,10.10,10.8,0.70,6.48,0,0,0
PPG,07/23/2009,10.6,11.1,10.6,10.8,11800,11.40,10.00,10.7,0.10,0.93,0,0,0
PPG,07/22/2009,10.9,10.9,10.6,10.7,7900,11.40,10.00,10.7,0.00,0.00,0,0,0
PPG,07/21/2009,11.0,11.0,10.5,10.7,6900,11.30,9.90,10.6,0.10,0.94,0,0,0
PPG,07/20/2009,10.9,10.9,10.5,10.6,22000,11.70,10.30,11.0,-0.40,-3.64,0,0,0
PPG,07/17/2009,11.4,11.4,10.9,11.0,22200,11.90,10.50,11.2,-0.20,-1.79,0,0,0
PPG,07/16/2009,11.7,11.7,11.0,11.2,1900,12.10,10.70,11.4,-0.20,-1.75,0,0,0
PPG,07/15/2009,11.2,11.5,11.2,11.4,5500,11.60,10.20,10.9,0.50,4.59,0,0,0
PPG,07/14/2009,11.7,11.7,10.8,10.9,2600,11.70,10.30,11.0,-0.10,-0.91,0,0,0
PPG,07/13/2009,11.3,11.3,11.0,11.0,6400,11.90,10.50,11.2,-0.20,-1.79,0,0,0
PPG,07/10/2009,12.2,12.2,11.0,11.2,11300,12.30,10.70,11.5,-0.30,-2.61,0,0,0
PPG,07/09/2009,11.6,11.6,11.5,11.5,9100,12.30,10.70,11.5,0.00,0.00,0,0,0
PPG,07/08/2009,11.8,11.8,11.2,11.5,1100,12.40,10.80,11.6,-0.10,-0.86,0,0,0
PPG,07/07/2009,11.7,11.7,11.2,11.6,9000,12.50,10.90,11.7,-0.10,-0.85,0,0,0
PPG,07/06/2009,11.5,11.9,11.1,11.7,38800,11.90,10.50,11.2,0.50,4.46,0,2000,0
PPG,07/03/2009,11.2,11.2,11.0,11.2,3800,11.60,10.20,10.9,0.30,2.75,0,0,0
PPG,07/02/2009,11.3,11.4,10.7,10.9,16200,11.50,10.10,10.8,0.10,0.93,0,0,0
PPG,07/01/2009,11.0,11.0,10.7,10.8,23900,12.10,10.70,11.4,-0.60,-5.26,0,0,0
PPG,06/30/2009,11.7,11.8,11.1,11.4,16300,12.70,11.10,11.9,-0.50,-4.20,0,0,0
PPG,06/29/2009,12.3,12.4,11.4,11.9,16300,13.00,11.40,12.2,-0.30,-2.46,0,0,0
PPG,06/26/2009,12.7,12.7,12.0,12.2,12900,13.20,11.60,12.4,-0.20,-1.61,5000,0,0
PPG,06/25/2009,12.4,12.6,11.8,12.4,22200,12.60,11.00,11.8,0.60,5.08,0,0,0
PPG,06/24/2009,11.8,11.8,11.8,11.8,1000,11.80,10.40,11.1,0.70,6.31,0,0,0
PPG,06/23/2009,11.0,12.4,10.9,11.1,38800,12.50,10.90,11.7,-0.60,-5.13,0,0,0
PPG,06/22/2009,11.9,11.9,11.7,11.7,27200,13.30,11.70,12.5,-0.80,-6.40,0,0,0
PPG,06/19/2009,13.5,13.5,12.0,12.5,27600,13.80,12.00,12.9,-0.40,-3.10,0,0,0
PPG,06/18/2009,12.6,13.0,12.6,12.9,42100,13.00,11.40,12.2,0.70,5.74,5000,0,0
PPG,06/17/2009,12.0,12.6,12.0,12.2,65200,13.80,12.00,12.9,-0.70,-5.43,5000,1000,0
PPG,06/16/2009,12.9,12.9,12.9,12.9,31800,14.70,12.90,13.8,-0.90,-6.52,0,500,0
PPG,06/15/2009,15.0,15.0,13.6,13.8,50200,15.60,13.60,14.6,-0.80,-5.48,0,1000,0
PPG,06/12/2009,15.0,15.0,14.0,14.6,46200,15.80,13.80,14.8,-0.20,-1.35,0,0,0
PPG,06/11/2009,14.5,15.1,14.5,14.8,55000,15.50,13.50,14.5,0.30,2.07,5000,0,0
PPG,06/10/2009,15.9,16.1,14.1,14.5,52800,16.10,14.10,15.1,-0.60,-3.97,0,0,0
PPG,06/09/2009,15.1,15.1,14.8,15.1,228900,15.10,13.30,14.2,0.90,6.34,0,0,5000
PPG,06/08/2009,14.2,14.2,14.2,14.2,20000,14.20,12.40,13.3,0.90,6.77,0,0,0
PPG,06/05/2009,13.3,13.3,13.0,13.3,127000,13.30,11.70,12.5,0.80,6.40,0,0,0
PPG,06/04/2009,12.0,12.8,12.0,12.5,81600,12.80,11.20,12.0,0.50,4.17,0,0,0
PPG,06/03/2009,12.3,12.4,11.7,12.0,24500,13.30,11.70,12.5,-0.50,-4.00,0,0,0
PPG,06/02/2009,12.5,12.7,12.0,12.5,69200,12.70,11.10,11.9,0.60,5.04,0,3000,0
PPG,06/01/2009,11.8,11.9,11.6,11.9,49400,11.90,10.50,11.2,0.70,6.25,0,0,0
PPG,05/29/2009,11.6,11.6,11.0,11.2,18900,11.80,10.40,11.1,0.10,0.90,0,0,0
PPG,05/28/2009,11.3,11.5,10.9,11.1,20000,12.40,10.80,11.6,-0.50,-4.31,0,0,0
PPG,05/27/2009,12.5,12.5,11.4,11.6,69700,12.80,11.20,12.0,-0.40,-3.33,0,0,0
PPG,05/27/2009,12.5,12.5,11.4,11.6,69700,12.80,11.20,12.0,-0.40,-3.33,0,0,0
PPG,05/26/2009,12.8,12.8,11.3,12.0,75800,12.90,11.30,12.1,-0.10,-0.83,0,0,0
PPG,05/25/2009,12.1,12.1,12.0,12.1,54500,12.10,10.70,11.4,0.70,6.14,0,0,0
PPG,05/22/2009,12.2,12.2,11.0,11.4,28200,12.40,10.80,11.6,-0.20,-1.72,0,0,0
PPG,05/21/2009,11.2,11.7,11.1,11.6,85400,11.70,10.30,11.0,0.60,5.45,0,0,0
PPG,05/20/2009,11.0,11.2,10.7,11.0,69600,11.70,10.30,11.0,0.00,0.00,0,0,0
PPG,05/19/2009,10.6,11.1,10.6,11.0,54500,11.50,10.10,10.8,0.20,1.85,0,0,0
PPG,05/18/2009,11.3,11.3,10.6,10.8,25300,12.00,10.60,11.3,-0.50,-4.42,0,0,0
PPG,05/15/2009,11.2,11.5,10.8,11.3,54000,11.50,10.10,10.8,0.50,4.63,0,100,0
PPG,05/14/2009,11.2,11.2,9.8,10.8,40600,11.20,9.80,10.5,0.30,2.86,0,7500,0
PPG,05/13/2009,10.5,10.5,10.5,10.5,15700,10.50,9.30,9.9,0.60,6.06,0,0,0
PPG,05/12/2009,9.8,10.3,9.8,9.9,39900,10.80,9.40,10.1,-0.20,-1.98,0,0,0
PPG,05/11/2009,9.5,10.6,9.5,10.1,30500,10.90,9.50,10.2,-0.10,-0.98,0,0,0
PPG,05/08/2009,10.1,10.5,10.1,10.2,46300,11.50,10.10,10.8,-0.60,-5.56,0,0,0
PPG,05/07/2009,10.3,11.2,10.3,10.8,50500,11.60,10.20,10.9,-0.10,-0.92,0,0,0
PPG,05/06/2009,10.9,11.0,10.9,10.9,33000,12.50,10.90,11.7,-0.80,-6.84,0,0,0
PPG,05/05/2009,11.8,11.8,11.2,11.7,31500,11.80,10.40,11.1,0.60,5.41,0,500,0
PPG,05/04/2009,11.0,11.1,11.0,11.1,19400,11.10,9.70,10.4,0.70,6.73,0,500,0
PPG,04/29/2009,10.6,10.6,10.2,10.4,24000,11.20,9.80,10.5,-0.10,-0.95,0,0,0
PPG,04/28/2009,10.6,10.6,10.3,10.5,41400,11.30,9.90,10.6,-0.10,-0.94,0,0,0
PPG,04/27/2009,10.5,11.0,10.3,10.6,12500,11.20,9.80,10.5,0.10,0.95,0,0,0
PPG,04/24/2009,11.0,11.0,10.3,10.6,10700,11.40,10.00,10.7,-0.10,-0.93,0,0,0
PPG,04/23/2009,11.5,11.5,10.4,10.7,28700,11.80,10.40,11.1,-0.40,-3.60,0,0,0
PPG,04/22/2009,11.2,11.4,10.8,11.1,36200,11.50,10.10,10.8,0.30,2.78,0,1500,3000
PPG,04/21/2009,10.7,11.3,10.7,10.8,49500,12.30,10.70,11.5,-0.70,-6.09,0,5700,0
PPG,04/20/2009,11.5,11.5,11.5,11.5,9900,13.10,11.50,12.3,-0.80,-6.50,0,0,0
PPG,04/17/2009,13.3,13.3,11.7,12.3,57300,13.30,11.70,12.5,-0.20,-1.60,0,0,8000
PPG,04/16/2009,11.0,12.6,11.0,12.5,78700,12.60,11.00,11.8,0.70,5.93,0,0,0
PPG,04/15/2009,12.5,12.6,11.1,11.8,52300,12.60,11.00,11.8,0.00,0.00,0,0,3000
PPG,04/14/2009,11.9,11.9,11.4,11.8,119600,11.90,10.50,11.2,0.60,5.36,0,0,2000
PPG,04/13/2009,11.2,11.2,11.2,11.2,20400,11.20,9.80,10.5,0.70,6.67,0,0,0
PPG,04/10/2009,10.5,10.5,10.5,10.5,700,10.50,9.30,9.9,0.60,6.06,0,0,0
PPG,04/09/2009,9.7,10.2,9.6,9.9,36300,10.20,9.00,9.6,0.30,3.13,0,4600,0
PPG,04/08/2009,9.6,10.0,9.5,9.6,44900,10.80,9.40,10.1,-0.50,-4.95,0,0,0
PPG,04/07/2009,10.1,10.3,10.0,10.1,33300,10.50,9.30,9.9,0.20,2.02,0,500,0
PPG,04/03/2009,9.8,10.1,9.6,9.9,53600,10.20,9.00,9.6,0.30,3.13,0,0,0
PPG,04/02/2009,9.7,9.7,9.5,9.6,7400,10.30,9.10,9.7,-0.10,-1.03,0,0,0
PPG,04/01/2009,9.7,9.8,9.6,9.7,11200,9.90,8.70,9.3,0.40,4.30,0,100,0
PPG,03/31/2009,9.5,9.5,9.3,9.3,11700,9.80,8.60,9.2,0.10,1.09,0,1000,0
PPG,03/30/2009,9.5,9.5,9.4,9.5,9400,10.20,9.00,9.6,-0.10,-1.04,0,0,0
PPG,03/27/2009,9.7,9.7,9.5,9.6,9100,10.30,9.10,9.7,-0.10,-1.03,0,0,0
PPG,03/26/2009,9.6,9.9,9.6,9.7,4400,10.30,9.10,9.7,0.00,0.00,0,1000,0
PPG,03/25/2009,9.7,9.8,9.6,9.7,22700,10.30,9.10,9.7,0.00,0.00,0,0,0
PPG,03/24/2009,9.8,9.9,9.6,9.7,10500,10.20,9.00,9.6,0.10,1.04,0,1000,0
PPG,03/23/2009,9.6,9.7,9.5,9.6,2100,10.10,8.90,9.5,0.10,1.05,0,0,0
PPG,03/20/2009,9.2,9.7,9.2,9.5,16500,10.40,9.20,9.8,-0.30,-3.06,0,0,0
PPG,03/19/2009,10.1,10.4,9.7,9.8,33000,10.50,9.30,9.9,-0.10,-1.01,0,500,0
PPG,03/18/2009,9.8,10.1,9.7,9.8,50200,10.20,9.00,9.6,0.20,2.08,0,0,0
PPG,03/17/2009,9.6,9.7,9.5,9.6,9600,10.10,8.90,9.5,0.10,1.05,0,0,0
PPG,03/16/2009,9.6,9.6,9.5,9.5,7000,10.10,8.90,9.5,0.00,0.00,0,0,0
PPG,03/13/2009,9.6,9.6,9.5,9.5,15300,10.20,9.00,9.6,-0.10,-1.04,0,0,0
PPG,03/12/2009,10.0,10.0,9.4,9.6,7900,10.70,9.30,10.0,-0.40,-4.00,0,0,0
PPG,03/11/2009,9.9,10.1,9.7,10.0,18200,10.10,8.90,9.5,0.50,5.26,0,0,0
PPG,03/10/2009,9.4,9.7,9.4,9.5,5500,9.80,8.60,9.2,0.30,3.26,0,0,0
PPG,03/09/2009,9.2,9.3,9.1,9.2,5100,9.90,8.70,9.3,-0.10,-1.08,0,1000,0
PPG,03/06/2009,9.3,9.4,9.1,9.3,11400,10.10,8.90,9.5,-0.20,-2.11,0,0,0
PPG,03/05/2009,9.8,9.8,9.3,9.5,9100,10.00,8.80,9.4,0.10,1.06,0,0,0
PPG,03/04/2009,9.4,9.4,9.3,9.4,11300,10.00,8.80,9.4,0.00,0.00,0,0,0
PPG,03/03/2009,9.4,9.4,9.3,9.4,5500,10.10,8.90,9.5,-0.10,-1.05,0,0,0
PPG,03/02/2009,9.4,9.7,9.3,9.5,19700,10.30,9.10,9.7,-0.20,-2.06,0,1100,0
PPG,02/27/2009,9.7,9.7,9.6,9.7,7200,10.30,9.10,9.7,0.00,0.00,0,2600,0
PPG,02/26/2009,9.7,9.7,9.6,9.7,6700,10.50,9.30,9.9,-0.20,-2.02,0,5300,0
PPG,02/25/2009,9.7,10.0,9.7,9.9,12500,10.10,8.90,9.5,0.40,4.21,0,3000,0
PPG,02/24/2009,9.6,9.6,9.4,9.5,14500,10.30,9.10,9.7,-0.20,-2.06,0,100,0
PPG,02/23/2009,9.7,9.7,9.6,9.7,20600,10.30,9.10,9.7,0.00,0.00,0,0,0
PPG,02/20/2009,10.0,10.0,9.5,9.7,7600,10.50,9.30,9.9,-0.20,-2.02,0,0,0
PPG,02/19/2009,9.8,9.9,9.8,9.9,9100,10.10,8.90,9.5,0.40,4.21,0,0,0
PPG,02/18/2009,9.5,9.7,9.4,9.7,6000,10.30,9.10,9.7,0.00,0.00,0,500,0
PPG,02/17/2009,10.7,10.7,9.5,9.8,14400,10.70,9.30,10.0,-0.20,-2.00,0,0,0
PPG,02/16/2009,10.0,10.1,9.8,10.0,22000,10.10,8.90,9.5,0.50,5.26,0,0,0
PPG,02/13/2009,10.0,10.0,9.3,9.5,1300,10.00,8.80,9.4,0.10,1.06,0,100,0
PPG,02/12/2009,9.4,9.4,9.3,9.4,5600,10.00,8.80,9.4,0.00,0.00,0,0,0
PPG,02/11/2009,9.4,9.4,9.4,9.4,3000,10.00,8.80,9.4,0.00,0.00,0,0,0
PPG,02/10/2009,9.5,9.5,9.2,9.4,8600,10.30,9.10,9.7,-0.30,-3.09,0,500,0
PPG,02/09/2009,9.7,9.9,9.7,9.7,13100,10.10,8.90,9.5,0.20,2.11,0,1000,0
PPG,02/06/2009,9.5,9.7,9.3,9.5,4100,10.10,8.90,9.5,0.00,0.00,0,0,0
PPG,02/05/2009,9.7,9.7,9.4,9.5,19800,10.40,9.20,9.8,-0.30,-3.06,0,200,0
PPG,02/04/2009,10.0,10.0,9.7,9.8,5600,10.70,9.30,10.0,-0.20,-2.00,0,200,0
PPG,02/03/2009,10.0,10.4,9.7,10.0,2800,11.00,9.60,10.3,-0.30,-2.91,0,200,0
PPG,02/02/2009,10.6,10.6,10.1,10.3,2500,11.50,10.10,10.8,-0.50,-4.63,0,500,0
PPG,01/23/2009,10.8,10.8,10.7,10.8,3600,11.10,9.70,10.4,0.40,3.85,0,0,0
PPG,01/22/2009,10.5,10.5,10.4,10.4,8100,11.10,9.70,10.4,0.00,0.00,0,0,0
PPG,01/21/2009,10.5,10.5,10.2,10.4,21900,11.40,10.00,10.7,-0.30,-2.80,0,1000,0
PPG,01/20/2009,10.7,10.7,10.7,10.7,1000,11.30,9.90,10.6,0.10,0.94,0,0,0
PPG,01/19/2009,10.8,11.0,10.5,10.6,16500,11.70,10.30,11.0,-0.40,-3.64,0,0,0
PPG,01/16/2009,10.9,11.0,10.8,11.0,22200,11.00,9.60,10.3,0.70,6.80,0,0,0
PPG,01/15/2009,10.2,10.5,9.9,10.3,40100,10.50,9.30,9.9,0.40,4.04,0,0,0
PPG,01/14/2009,10.2,10.2,9.8,9.9,6200,10.40,9.20,9.8,0.10,1.02,0,0,0
PPG,01/13/2009,9.9,10.0,9.7,9.8,10500,10.70,9.30,10.0,-0.20,-2.00,0,1000,0
PPG,01/12/2009,10.1,10.1,9.9,10.0,4600,10.70,9.30,10.0,0.00,0.00,0,1300,0
PPG,01/09/2009,10.0,10.0,10.0,10.0,3200,10.50,9.30,9.9,0.10,1.01,0,2000,0
PPG,01/08/2009,9.9,10.0,9.8,9.9,4000,10.90,9.50,10.2,-0.30,-2.94,0,0,0
PPG,01/07/2009,10.3,10.6,10.1,10.2,16200,10.80,9.40,10.1,0.10,0.99,0,0,0
PPG,01/06/2009,10.3,10.3,10.1,10.1,2100,10.70,9.30,10.0,0.10,1.00,0,0,0
PPG,01/05/2009,10.2,10.2,9.9,10.0,2700,10.50,9.30,9.9,0.10,1.01,0,0,0
PPG,01/02/2009,9.9,10.1,9.8,9.9,10400,10.50,9.30,9.9,0.00,0.00,0,1000,0
PPG,12/31/2008,10.2,10.2,9.8,9.9,10200,10.90,9.50,10.2,-0.30,-2.94,0,0,0
PPG,12/30/2008,9.8,10.4,9.8,10.2,1500,11.10,9.70,10.4,-0.20,-1.92,0,0,0
PPG,12/29/2008,10.6,10.6,10.1,10.4,200,10.80,9.40,10.1,0.30,2.97,0,0,0
PPG,12/26/2008,11.2,11.2,10.1,10.1,17300,11.50,10.10,10.8,-0.70,-6.48,0,100,3000
PPG,12/25/2008,10.8,10.8,10.7,10.8,200,11.00,9.60,10.3,0.50,4.85,0,0,0
PPG,12/24/2008,10.9,10.9,10.2,10.3,10500,11.60,10.20,10.9,-0.60,-5.50,0,0,0
PPG,12/23/2008,11.3,11.3,10.8,10.9,3100,11.50,10.10,10.8,0.10,0.93,0,0,0
PPG,12/22/2008,10.9,10.9,10.5,10.8,15100,10.90,9.50,10.2,0.60,5.88,0,0,0
PPG,12/19/2008,9.7,10.3,9.7,10.2,7200,10.30,9.10,9.7,0.50,5.15,0,0,0
PPG,12/18/2008,10.0,10.0,9.7,9.7,3700,10.50,9.30,9.9,-0.20,-2.02,0,0,0
PPG,12/17/2008,9.9,10.1,9.7,9.9,3700,10.80,9.40,10.1,-0.20,-1.98,0,500,0
PPG,12/16/2008,10.9,10.9,10.0,10.1,5000,11.40,10.00,10.7,-0.60,-5.61,0,0,0
PPG,12/15/2008,10.7,10.7,10.7,10.7,3200,10.70,9.30,10.0,0.70,7.00,0,100,0
PPG,12/12/2008,10.1,10.2,9.6,10.0,11100,10.20,9.00,9.6,0.40,4.17,0,1000,0
PPG,12/11/2008,9.4,10.0,9.4,9.6,1000,10.20,9.00,9.6,0.00,0.00,0,0,0
PPG,12/10/2008,9.5,9.9,9.5,9.6,4000,10.30,9.10,9.7,-0.10,-1.03,0,0,0
PPG,12/09/2008,9.7,10.0,9.5,9.7,7300,10.20,9.00,9.6,0.10,1.04,0,200,0
PPG,12/08/2008,10.0,10.0,9.5,9.6,13700,10.90,9.50,10.2,-0.60,-5.88,0,500,0
PPG,12/05/2008,11.1,11.1,10.0,10.2,8300,11.20,9.80,10.5,-0.30,-2.86,0,700,0
PPG,12/04/2008,11.6,11.6,11.0,11.1,16600,11.90,10.50,11.2,-0.10,-0.89,0,3000,0
PPG,12/03/2008,11.4,11.5,11.0,11.2,8400,11.70,10.30,11.0,0.20,1.82,0,0,100
PPG,12/02/2008,11.0,11.0,10.9,11.0,8400,12.00,10.60,11.3,-0.30,-2.65,0,0,0
PPG,12/01/2008,11.2,11.5,10.8,11.3,36900,11.90,10.50,11.2,0.10,0.89,0,0,0
PPG,11/28/2008,10.5,11.2,10.5,11.2,25500,11.20,9.80,10.5,0.70,6.67,0,0,0
PPG,11/27/2008,10.6,10.6,10.5,10.5,13800,11.50,10.10,10.8,-0.30,-2.78,0,0,0
PPG,11/26/2008,10.7,10.9,10.6,10.8,29400,11.40,10.00,10.7,0.10,0.93,0,0,0
PPG,11/25/2008,11.0,11.0,10.5,10.7,10500,11.60,10.20,10.9,-0.20,-1.83,0,0,0
PPG,11/24/2008,11.5,11.5,10.5,10.9,29100,11.50,10.10,10.8,0.10,0.93,0,0,0
PPG,11/21/2008,10.7,11.2,10.5,10.8,37900,11.20,9.80,10.5,0.30,2.86,0,500,0
PPG,11/20/2008,10.4,10.7,10.4,10.5,18600,11.80,10.40,11.1,-0.60,-5.41,0,500,0
PPG,11/19/2008,11.5,11.6,11.0,11.1,22100,12.30,10.70,11.5,-0.40,-3.48,0,0,0
PPG,11/18/2008,11.4,11.6,11.3,11.5,21600,12.90,11.30,12.1,-0.60,-4.96,0,0,0
PPG,11/17/2008,12.8,12.8,12.0,12.1,22500,13.60,12.00,12.8,-0.70,-5.47,0,0,0
PPG,11/14/2008,13.0,13.2,12.5,12.8,19700,13.20,11.60,12.4,0.40,3.23,0,0,0
PPG,11/13/2008,13.0,13.4,11.9,12.4,50800,13.40,11.80,12.6,-0.20,-1.59,0,0,0
PPG,11/12/2008,12.3,13.0,12.3,12.6,51300,14.10,12.30,13.2,-0.60,-4.55,0,0,100
PPG,11/11/2008,13.3,13.3,13.2,13.2,5800,15.00,13.20,14.1,-0.90,-6.38,0,100,0
PPG,11/10/2008,14.6,14.6,13.0,14.1,51700,14.60,12.80,13.7,0.40,2.92,0,100,0
PPG,11/07/2008,13.4,13.8,12.5,13.8,205400,13.80,12.00,12.9,0.90,6.98,0,4500,2000
PPG,11/06/2008,12.9,12.9,12.5,12.9,116300,12.90,11.30,12.1,0.80,6.61,0,100,500
PPG,11/05/2008,12.1,12.1,12.1,12.1,5100,12.10,10.70,11.4,0.70,6.14,0,0,0
PPG,11/04/2008,11.4,11.4,11.4,11.4,12100,11.40,10.00,10.7,0.70,6.54,0,0,0
PPG,11/03/2008,10.7,10.7,10.7,10.7,37600,10.70,9.30,10.0,0.70,7.00,0,0,0
PPG,10/31/2008,10.0,10.0,10.0,10.0,1100,10.00,8.80,9.4,0.60,6.38,0,0,0
PPG,10/30/2008,9.4,9.4,9.4,9.4,9600,9.40,8.20,8.8,0.60,6.82,0,0,0
PPG,10/29/2008,8.8,8.8,8.8,8.8,23500,8.80,7.80,8.3,0.50,6.02,0,0,7500
PPG,10/28/2008,8.3,8.4,8.3,8.3,7300,9.00,8.00,8.5,-0.20,-2.35,0,0,0
PPG,10/27/2008,8.6,8.6,8.4,8.5,16100,9.60,8.40,9.0,-0.50,-5.56,0,0,7500
PPG,10/24/2008,9.0,9.3,8.8,8.9,11400,9.80,8.60,9.2,-0.30,-3.26,0,0,0
PPG,10/23/2008,9.1,9.3,9.1,9.2,5500,10.30,9.10,9.7,-0.50,-5.15,0,0,0
PPG,10/22/2008,9.5,9.9,9.4,9.7,5600,10.50,9.30,9.9,-0.20,-2.02,0,0,0
PPG,10/21/2008,9.8,10.1,9.8,9.8,6600,10.30,9.10,9.7,0.10,1.03,0,0,0
PPG,10/20/2008,9.7,9.8,9.7,9.7,4300,10.90,9.50,10.2,-0.50,-4.90,0,0,0
PPG,10/17/2008,10.5,10.5,10.0,10.2,4000,10.70,9.30,10.0,0.20,2.00,0,0,0
PPG,10/16/2008,10.0,10.4,9.9,10.0,4400,11.20,9.80,10.5,-0.50,-4.76,0,0,0
PPG,10/15/2008,11.1,11.1,9.9,10.5,10300,11.10,9.70,10.4,0.10,0.96,0,0,0
PPG,10/14/2008,10.4,10.4,10.4,10.4,300,10.40,9.20,9.8,0.60,6.12,0,300,0
PPG,10/13/2008,8.9,10.0,8.9,9.8,8600,10.10,8.90,9.5,0.30,3.16,0,200,100
PPG,10/10/2008,9.9,9.9,9.2,9.5,10700,10.30,9.10,9.7,-0.20,-2.06,0,0,0
PPG,10/09/2008,9.7,10.2,9.2,9.7,31600,10.40,9.20,9.8,-0.10,-1.02,0,0,0
PPG,10/08/2008,9.6,10.3,9.6,9.8,7500,11.00,9.60,10.3,-0.50,-4.85,0,0,0
PPG,10/07/2008,11.0,11.3,10.9,10.9,23000,12.50,10.90,11.7,-0.80,-6.84,0,0,0
PPG,10/06/2008,12.0,12.0,11.4,11.7,5200,12.70,11.10,11.9,-0.20,-1.68,0,0,0
PPG,10/03/2008,12.0,12.1,11.8,12.1,9900,12.80,11.20,12.0,0.10,0.83,0,0,0
PPG,10/02/2008,12.3,12.3,11.8,12.0,22700,12.30,10.70,11.5,0.50,4.35,0,0,0
PPG,10/01/2008,11.0,11.7,11.0,11.5,16800,11.70,10.30,11.0,0.50,4.55,0,0,0
PPG,09/30/2008,11.0,11.0,11.0,11.0,14000,12.60,11.00,11.8,-0.80,-6.78,0,0,2000
PPG,09/29/2008,12.3,12.3,11.3,11.8,23900,12.90,11.30,12.1,-0.30,-2.48,0,100,0
PPG,09/26/2008,11.5,12.5,11.5,12.1,24500,12.70,11.10,11.9,0.20,1.68,0,900,0
PPG,09/25/2008,11.5,12.0,11.5,11.9,15100,12.30,10.70,11.5,0.40,3.48,0,0,0
PPG,09/24/2008,11.4,11.9,11.3,11.5,6300,12.80,11.20,12.0,-0.50,-4.17,0,0,0
PPG,09/23/2008,12.5,12.7,11.1,12.0,43900,12.70,11.10,11.9,0.10,0.84,0,0,0
PPG,09/22/2008,11.9,11.9,11.9,11.9,1600,11.90,10.50,11.2,0.70,6.25,0,0,0
PPG,09/19/2008,10.3,11.7,10.3,11.2,46400,11.70,10.30,11.0,0.20,1.82,0,0,0
PPG,09/18/2008,11.0,11.0,11.0,11.0,6500,12.60,11.00,11.8,-0.80,-6.78,0,0,0
PPG,09/17/2008,11.8,11.8,11.8,11.8,9900,13.40,11.80,12.6,-0.80,-6.35,0,0,0
PPG,09/16/2008,12.9,12.9,12.6,12.6,11000,14.40,12.60,13.5,-0.90,-6.67,0,0,0
PPG,09/15/2008,12.7,14.3,12.7,13.5,20500,14.50,12.70,13.6,-0.10,-0.74,0,0,0
PPG,09/12/2008,13.6,13.6,13.6,13.6,6600,15.60,13.60,14.6,-1.00,-6.85,0,0,0
PPG,09/11/2008,14.5,15.5,13.9,14.6,6200,15.90,13.90,14.9,-0.30,-2.01,0,0,0
PPG,09/10/2008,15.1,15.1,14.3,14.9,83600,15.10,13.30,14.2,0.70,4.93,0,0,5000
PPG,09/09/2008,14.0,14.3,13.5,14.2,82300,14.30,12.50,13.4,0.80,5.97,0,0,4000
PPG,09/08/2008,13.4,14.5,13.2,13.4,38900,15.00,13.20,14.1,-0.70,-4.96,0,0,100
PPG,09/05/2008,14.2,14.4,13.7,14.1,23500,15.50,13.50,14.5,-0.40,-2.76,0,0,1000
PPG,09/04/2008,15.0,15.1,14.1,14.5,45800,15.10,13.30,14.2,0.30,2.11,0,7000,2600
PPG,09/03/2008,13.5,14.3,13.5,14.2,22200,14.30,12.50,13.4,0.80,5.97,0,0,1000
PPG,08/29/2008,12.4,14.2,12.4,13.4,16400,14.20,12.40,13.3,0.10,0.75,0,8000,0
PPG,08/28/2008,14.6,14.6,12.8,13.3,5400,14.60,12.80,13.7,-0.40,-2.92,0,0,0
PPG,08/27/2008,13.8,13.8,13.0,13.7,89500,13.80,12.00,12.9,0.80,6.20,0,100,1000
PPG,08/26/2008,12.9,12.9,12.8,12.9,20200,12.90,11.30,12.1,0.80,6.61,0,0,0
PPG,08/25/2008,11.0,12.1,11.0,12.1,29000,12.10,10.70,11.4,0.70,6.14,0,0,0
PPG,08/22/2008,12.0,12.0,11.0,11.4,23700,12.30,10.70,11.5,-0.10,-0.87,0,0,0
PPG,08/21/2008,11.0,12.3,11.0,11.5,14300,12.50,10.90,11.7,-0.20,-1.71,0,0,0
PPG,08/20/2008,11.7,11.7,11.7,11.7,9000,13.30,11.70,12.5,-0.80,-6.40,0,0,0
PPG,08/19/2008,13.1,13.1,12.1,12.5,8000,13.90,12.10,13.0,-0.50,-3.85,0,500,0
PPG,08/18/2008,13.1,13.1,12.4,13.0,37700,13.10,11.50,12.3,0.70,5.69,0,0,500
PPG,08/15/2008,12.3,12.3,12.3,12.3,3600,12.30,11.50,11.9,0.40,3.36,0,0,300
PPG,08/14/2008,11.4,12.0,11.2,11.9,28600,12.00,11.20,11.6,0.30,2.59,0,0,0
PPG,08/13/2008,11.9,11.9,11.2,11.6,11200,12.00,11.20,11.6,0.00,0.00,0,0,0
PPG,08/12/2008,11.6,11.6,11.1,11.6,19000,11.60,10.80,11.2,0.40,3.57,0,0,0
PPG,08/11/2008,11.2,11.2,11.2,11.2,1000,11.20,10.40,10.8,0.40,3.70,0,0,0
PPG,08/08/2008,10.8,10.8,10.5,10.8,5700,10.80,10.00,10.4,0.40,3.85,0,0,0
PPG,08/07/2008,10.5,10.5,10.2,10.4,9000,10.50,9.70,10.1,0.30,2.97,0,0,0
PPG,08/06/2008,9.9,10.2,9.9,10.1,18700,10.20,9.60,9.9,0.20,2.02,0,0,0
PPG,08/05/2008,10.1,10.1,9.8,9.9,7200,10.60,9.80,10.2,-0.30,-2.94,0,500,0
PPG,08/04/2008,10.7,10.7,10.1,10.2,4700,10.90,10.10,10.5,-0.30,-2.86,0,0,0
PPG,08/01/2008,10.5,11.0,10.5,10.5,4200,11.30,10.50,10.9,-0.40,-3.67,0,500,0
PPG,07/31/2008,10.7,11.5,10.7,10.9,6400,11.50,10.70,11.1,-0.20,-1.80,0,500,0
PPG,07/30/2008,11.1,11.4,11.0,11.1,13800,11.80,11.00,11.4,-0.30,-2.63,0,500,0
PPG,07/29/2008,11.2,11.9,11.2,11.4,27000,12.00,11.20,11.6,-0.20,-1.72,0,500,0
PPG,07/28/2008,11.6,11.6,11.6,11.6,12600,12.40,11.60,12.0,-0.40,-3.33,0,500,0
PPG,07/25/2008,12.0,12.0,12.0,12.0,800,13.00,12.00,12.5,-0.50,-4.00,0,0,0
PPG,07/24/2008,12.5,12.5,12.5,12.5,8700,13.50,12.50,13.0,-0.50,-3.85,0,0,0
PPG,07/23/2008,13.0,13.0,13.0,13.0,100,14.00,13.00,13.5,-0.50,-3.70,0,0,0
PPG,07/22/2008,0.0,0.0,0.0,13.5,0,14.00,13.00,13.5,0.00,0.00,0,0,0
PPG,07/21/2008,13.5,13.5,13.5,13.5,100,14.50,13.50,14.0,-0.50,-3.57,0,0,0
PPG,07/18/2008,14.9,14.9,13.9,14.0,14000,14.90,13.90,14.4,-0.40,-2.78,0,500,0
PPG,07/17/2008,14.3,14.4,14.2,14.4,19000,14.40,13.40,13.9,0.50,3.60,0,0,500
PPG,07/16/2008,14.2,14.3,13.3,13.9,46200,14.30,13.30,13.8,0.10,0.72,0,0,500
PPG,07/15/2008,13.8,13.8,13.8,13.8,8300,13.80,12.80,13.3,0.50,3.76,0,0,500
PPG,07/14/2008,13.3,13.3,13.3,13.3,11600,13.30,12.30,12.8,0.50,3.91,0,0,500
PPG,07/11/2008,12.8,12.8,12.5,12.8,19500,12.80,12.00,12.4,0.40,3.23,0,500,0
PPG,07/10/2008,12.2,12.6,12.1,12.4,29500,12.60,11.80,12.2,0.20,1.64,0,0,0
PPG,07/09/2008,12.6,12.6,11.9,12.2,11900,12.60,11.80,12.2,0.00,0.00,0,0,0
PPG,07/08/2008,12.2,12.3,12.2,12.2,13600,13.20,12.20,12.7,-0.50,-3.94,0,0,0
PPG,07/07/2008,12.8,12.8,12.0,12.7,21500,12.80,12.00,12.4,0.30,2.42,0,0,0
PPG,07/04/2008,12.1,12.5,12.1,12.4,13400,12.50,11.70,12.1,0.30,2.48,0,0,500
PPG,07/03/2008,12.1,12.1,12.0,12.1,9400,12.10,11.30,11.7,0.40,3.42,0,0,1000
PPG,07/02/2008,11.9,11.9,11.5,11.7,32700,11.90,11.10,11.5,0.20,1.74,0,0,0
PPG,07/01/2008,11.4,11.5,11.4,11.5,8400,11.50,10.70,11.1,0.40,3.60,0,0,0
PPG,06/30/2008,11.2,11.5,11.1,11.1,7300,11.90,11.10,11.5,-0.40,-3.48,0,0,0
PPG,06/27/2008,11.3,12.1,11.3,11.5,7500,12.10,11.30,11.7,-0.20,-1.71,0,0,0
PPG,06/26/2008,11.8,11.9,11.1,11.7,9700,11.90,11.10,11.5,0.20,1.74,0,100,0
PPG,06/25/2008,11.4,11.5,11.4,11.5,6500,11.50,10.70,11.1,0.40,3.60,0,0,0
PPG,06/24/2008,10.9,11.2,10.9,11.1,7100,11.20,10.40,10.8,0.30,2.78,0,100,0
PPG,06/23/2008,10.1,10.9,10.1,10.8,9500,10.90,10.10,10.5,0.30,2.86,0,0,0
PPG,06/20/2008,10.5,10.5,10.5,10.5,3100,11.30,10.50,10.9,-0.40,-3.67,0,0,0
PPG,06/19/2008,10.9,10.9,10.9,10.9,10400,11.70,10.90,11.3,-0.40,-3.54,0,0,0
PPG,06/18/2008,11.6,11.6,11.0,11.3,35100,11.60,11.00,11.3,0.00,0.00,0,0,0
PPG,06/17/2008,11.3,11.3,11.3,11.3,100,11.30,10.70,11.0,0.30,2.73,0,0,100
PPG,06/16/2008,11.0,11.0,11.0,11.0,1200,11.00,10.40,10.7,0.30,2.80,0,0,0
PPG,06/13/2008,10.7,10.7,10.7,10.7,900,10.70,10.10,10.4,0.30,2.88,0,0,0
PPG,06/12/2008,10.4,10.4,10.4,10.4,400,10.40,9.80,10.1,0.30,2.97,0,0,0
PPG,06/11/2008,10.1,10.1,10.1,10.1,13500,10.10,9.70,9.9,0.20,2.02,0,0,0
PPG,06/10/2008,9.7,10.1,9.7,9.9,6300,10.10,9.70,9.9,0.00,0.00,0,0,0
PPG,06/09/2008,9.9,9.9,9.9,9.9,3100,10.50,9.90,10.2,-0.30,-2.94,0,0,0
PPG,06/06/2008,10.2,10.2,10.2,10.2,700,10.80,10.20,10.5,-0.30,-2.86,0,100,0
PPG,06/05/2008,10.5,10.5,10.5,10.5,800,11.10,10.50,10.8,-0.30,-2.78,0,0,0
PPG,06/04/2008,10.8,10.8,10.8,10.8,2200,11.40,10.80,11.1,-0.30,-2.70,0,0,0
PPG,06/03/2008,11.1,11.1,11.1,11.1,200,11.70,11.10,11.4,-0.30,-2.63,0,0,0
PPG,06/02/2008,11.4,11.4,11.4,11.4,600,12.90,10.50,11.7,-0.30,-2.56,0,0,0
PPG,05/30/2008,11.6,11.9,11.6,11.7,1900,12.20,11.60,11.9,-0.20,-1.68,0,0,0
PPG,05/29/2008,11.9,12.1,11.9,11.9,12700,12.50,11.90,12.2,-0.30,-2.46,0,400,0
PPG,05/28/2008,12.2,12.7,12.2,12.2,12400,12.80,12.20,12.5,-0.30,-2.40,0,200,0
PPG,05/27/2008,12.5,12.5,12.5,12.5,600,13.10,12.50,12.8,-0.30,-2.34,0,200,0
PPG,05/26/2008,12.8,12.8,12.8,12.8,1100,13.40,12.80,13.1,-0.30,-2.29,0,0,0
PPG,05/23/2008,12.9,13.5,12.9,13.1,7900,13.50,12.90,13.2,-0.10,-0.76,0,100,0
PPG,05/22/2008,12.9,13.5,12.9,13.2,7700,13.50,12.90,13.2,0.00,0.00,0,0,0
PPG,05/21/2008,13.0,13.5,12.9,13.2,6200,13.50,12.90,13.2,0.00,0.00,0,0,0
PPG,05/20/2008,13.1,13.8,13.1,13.2,3500,13.90,13.10,13.5,-0.30,-2.22,0,100,0
PPG,05/19/2008,13.1,13.6,13.1,13.5,5800,13.60,13.00,13.3,0.20,1.50,0,0,0
PPG,05/16/2008,13.1,13.5,13.1,13.3,6300,13.50,12.90,13.2,0.10,0.76,100000,0,0
PPG,05/15/2008,13.2,13.3,13.2,13.2,11700,14.00,13.20,13.6,-0.40,-2.94,0,0,0
PPG,05/14/2008,13.6,13.6,13.6,13.6,10300,14.40,13.60,14.0,-0.40,-2.86,0,0,0
PPG,05/13/2008,14.0,14.2,14.0,14.0,8000,14.80,14.00,14.4,-0.40,-2.78,0,0,0
PPG,05/12/2008,14.4,14.4,14.4,14.4,5000,15.20,14.40,14.8,-0.40,-2.70,0,0,0
PPG,05/09/2008,14.9,14.9,14.8,14.8,20900,15.60,14.80,15.2,-0.40,-2.63,0,0,0
PPG,05/08/2008,15.2,15.4,15.2,15.2,24600,16.00,15.20,15.6,-0.40,-2.56,0,0,0
PPG,05/07/2008,15.6,15.8,15.5,15.6,17900,16.30,15.50,15.9,-0.30,-1.89,0,0,0
PPG,05/06/2008,16.0,16.0,15.9,15.9,46200,16.70,15.90,16.3,-0.40,-2.45,0,0,0
PPG,05/05/2008,16.2,16.3,16.2,16.3,9300,17.20,16.20,16.7,-0.40,-2.40,0,0,0
PPG,04/29/2008,16.8,16.8,16.0,16.7,16800,16.80,16.00,16.4,0.30,1.83,0,0,0
PPG,04/28/2008,16.1,16.5,16.0,16.4,16800,16.50,15.70,16.1,0.30,1.86,0,0,0
PPG,04/25/2008,15.7,16.1,15.5,16.1,13700,16.10,15.30,15.7,0.40,2.55,0,0,0
PPG,04/24/2008,15.3,15.9,15.1,15.7,18800,15.90,15.10,15.5,0.20,1.29,0,0,0
PPG,04/23/2008,15.6,15.6,15.5,15.5,30700,16.30,15.50,15.9,-0.40,-2.52,0,0,0
PPG,04/22/2008,16.0,16.0,15.9,15.9,22700,16.70,15.90,16.3,-0.40,-2.45,0,0,0
PPG,04/21/2008,16.1,16.7,16.1,16.3,14100,16.90,16.10,16.5,-0.20,-1.21,0,100,0
PPG,04/18/2008,16.8,16.8,16.0,16.5,16500,16.80,16.00,16.4,0.10,0.61,0,0,0
PPG,04/17/2008,16.0,16.8,16.0,16.4,58100,16.80,16.00,16.4,0.00,0.00,0,0,0
PPG,04/16/2008,16.4,17.0,16.4,16.4,16000,17.40,16.40,16.9,-0.50,-2.96,0,0,0
PPG,04/11/2008,16.9,16.9,16.9,16.9,1900,17.90,16.90,17.4,-0.50,-2.87,0,0,0
PPG,04/10/2008,17.4,17.4,17.4,17.4,10200,18.40,17.40,17.9,-0.50,-2.79,0,0,0
PPG,04/09/2008,18.0,18.0,17.9,17.9,7400,18.90,17.90,18.4,-0.50,-2.72,0,0,0
PPG,04/08/2008,18.9,18.9,17.9,18.4,67600,18.90,17.90,18.4,0.00,0.00,0,0,0
PPG,04/07/2008,18.4,18.4,18.4,18.4,7200,18.40,17.40,17.9,0.50,2.79,0,0,100
PPG,04/04/2008,17.9,17.9,17.9,17.9,500,17.90,17.30,17.6,0.30,1.70,13600,0,0
PPG,04/03/2008,17.6,17.6,17.6,17.6,100,17.60,17.00,17.3,0.30,1.73,0,0,0
PPG,04/02/2008,17.3,17.3,17.3,17.3,8100,17.30,16.70,17.0,0.30,1.76,0,0,100
PPG,04/01/2008,17.0,17.0,17.0,17.0,200,17.00,16.40,16.7,0.30,1.80,0,0,100
PPG,03/31/2008,16.7,16.7,16.7,16.7,1200,16.70,16.10,16.4,0.30,1.83,0,0,0
PPG,03/28/2008,16.4,16.4,16.4,16.4,1300,16.40,15.80,16.1,0.30,1.86,0,0,0
PPG,03/27/2008,16.1,16.1,16.1,16.1,900,16.10,15.50,15.8,0.30,1.90,0,0,0
PPG,03/26/2008,13.2,15.9,13.1,15.8,43200,15.90,13.10,14.5,1.30,8.97,0,0,0
PPG,03/25/2008,15.1,15.5,14.8,15.1,40200,17.90,14.70,16.3,-1.20,-7.36,0,3000,400
PPG,03/24/2008,16.6,16.8,15.9,16.3,31800,19.30,15.90,17.6,-1.30,-7.39,0,3000,0
PPG,03/21/2008,17.7,18.3,17.0,17.6,15300,19.80,16.20,18.0,-0.40,-2.22,0,0,0
PPG,03/20/2008,18.0,18.2,18.0,18.0,10000,19.90,16.30,18.1,-0.10,-0.55,0,0,0
PPG,03/19/2008,19.0,19.2,17.5,18.1,16100,19.30,15.90,17.6,0.50,2.84,0,0,0
PPG,03/18/2008,17.6,18.0,17.5,17.6,29400,21.20,17.40,19.3,-1.70,-8.81,0,1400,0
PPG,03/17/2008,20.2,20.2,18.9,19.3,17400,22.80,18.80,20.8,-1.50,-7.21,0,0,0
PPG,03/14/2008,21.0,21.0,20.5,20.8,7700,23.70,19.50,21.6,-0.80,-3.70,0,0,0
PPG,03/13/2008,20.5,21.9,20.3,21.6,18500,22.60,18.60,20.6,1.00,4.85,0,0,0
PPG,03/12/2008,20.5,21.9,20.2,20.6,15800,22.20,18.20,20.2,0.40,1.98,0,0,0
PPG,03/11/2008,22.2,22.2,20.0,20.2,22900,24.40,20.00,22.2,-2.00,-9.01,0,0,0
PPG,03/10/2008,22.9,22.9,21.0,22.2,57800,22.90,18.90,20.9,1.30,6.22,0,1000,0
PPG,03/07/2008,20.9,20.9,20.9,20.9,2800,20.90,17.10,19.0,1.90,10.00,0,0,0
PPG,03/06/2008,19.0,19.0,19.0,19.0,4200,19.00,15.60,17.3,1.70,9.83,0,0,0
PPG,03/05/2008,17.1,18.0,17.1,17.3,46500,20.90,17.10,19.0,-1.70,-8.95,0,0,0
PPG,03/04/2008,19.5,19.6,18.9,19.0,14500,22.90,18.90,20.9,-1.90,-9.09,0,0,0
PPG,03/03/2008,21.5,21.5,20.2,20.9,29300,24.00,19.80,21.9,-1.00,-4.57,0,0,5000
PPG,02/29/2008,22.0,22.2,21.5,21.9,19200,24.80,20.40,22.6,-0.70,-3.10,0,0,0
PPG,02/28/2008,22.5,23.0,22.5,22.6,9900,25.10,20.70,22.9,-0.30,-1.31,0,0,0
PPG,02/27/2008,22.5,24.0,22.5,22.9,25700,25.40,20.80,23.1,-0.20,-0.87,0,0,0
PPG,02/26/2008,25.5,25.8,22.0,23.1,20100,26.00,21.40,23.7,-0.60,-2.53,0,0,0
PPG,02/25/2008,23.5,23.8,23.5,23.7,10900,23.80,19.60,21.7,2.00,9.22,0,0,0
PPG,02/22/2008,21.2,23.5,20.8,21.7,30500,25.10,20.70,22.9,-1.20,-5.24,0,4200,0
PPG,02/21/2008,23.3,23.3,22.8,22.9,29700,27.80,22.80,25.3,-2.40,-9.49,0,6500,0
PPG,02/20/2008,26.6,26.6,24.4,25.3,18400,29.20,24.00,26.6,-1.30,-4.89,0,0,0
PPG,02/19/2008,26.5,27.0,26.0,26.6,12300,28.80,23.60,26.2,0.40,1.53,0,0,0
PPG,02/18/2008,27.0,27.3,25.6,26.2,22400,30.90,25.30,28.1,-1.90,-6.76,0,0,0
PPG,02/15/2008,28.8,28.8,27.9,28.1,15900,32.00,26.20,29.1,-1.00,-3.44,0,0,0
PPG,02/14/2008,29.0,30.3,28.5,29.1,6800,32.20,26.40,29.3,-0.20,-0.68,0,0,0
PPG,02/13/2008,31.0,31.0,28.7,29.3,4500,32.80,27.00,29.9,-0.60,-2.01,0,200,0
PPG,02/12/2008,33.2,33.2,28.6,29.9,9800,34.20,28.00,31.1,-1.20,-3.86,0,0,3500
PPG,02/01/2008,32.0,32.0,30.0,31.1,26900,33.00,27.00,30.0,1.10,3.67,0,0,0
PPG,01/31/2008,30.5,30.5,28.5,30.0,18600,33.40,27.40,30.4,-0.40,-1.32,0,0,0
PPG,01/30/2008,30.0,30.5,30.0,30.4,34800,30.50,25.10,27.8,2.60,9.35,0,0,0
PPG,01/29/2008,26.0,28.3,26.0,27.8,12000,28.80,23.60,26.2,1.60,6.11,0,3000,0
PPG,01/28/2008,26.7,26.7,25.2,26.2,9800,29.20,24.00,26.6,-0.40,-1.50,0,0,0
PPG,01/25/2008,26.5,27.0,26.1,26.6,11200,30.10,24.70,27.4,-0.80,-2.92,0,0,0
PPG,01/24/2008,28.5,28.5,27.0,27.4,17500,29.90,24.50,27.2,0.20,0.74,0,0,0
PPG,01/23/2008,27.0,27.5,26.7,27.2,31300,30.60,25.20,27.9,-0.70,-2.51,0,0,0
PPG,01/22/2008,28.5,28.5,27.0,27.9,36100,32.30,26.50,29.4,-1.50,-5.10,0,0,3000
PPG,01/21/2008,28.8,30.0,28.5,29.4,15800,31.90,26.10,29.0,0.40,1.38,0,0,0
PPG,01/18/2008,27.5,30.0,27.2,29.0,21400,31.60,26.00,28.8,0.20,0.69,0,2000,0
PPG,01/17/2008,29.9,30.3,27.2,28.8,25300,30.50,25.10,27.8,1.00,3.60,0,0,0
PPG,01/16/2008,27.0,27.9,27.0,27.8,10200,27.90,22.90,25.4,2.40,9.45,0,0,0
PPG,01/15/2008,27.0,27.0,25.1,25.4,19000,30.50,25.10,27.8,-2.40,-8.63,5000,3000,0
PPG,01/14/2008,27.5,28.1,27.5,27.8,21100,33.20,27.20,30.2,-2.40,-7.95,0,0,0
PPG,01/11/2008,29.0,31.1,29.0,30.2,21800,32.40,26.60,29.5,0.70,2.37,0,0,0
PPG,01/10/2008,29.3,30.0,29.1,29.5,25000,34.30,28.10,31.2,-1.70,-5.45,0,0,0
PPG,01/09/2008,32.0,32.0,30.5,31.2,14200,35.20,28.80,32.0,-0.80,-2.50,0,0,0
PPG,01/08/2008,32.0,32.5,31.5,32.0,17600,33.50,27.50,30.5,1.50,4.92,0,0,0
PPG,01/07/2008,33.5,33.5,30.1,31.1,18700,36.00,29.60,32.8,-1.70,-5.18,0,0,0
PPG,01/04/2008,32.0,34.0,32.0,32.8,15800,37.40,30.60,34.0,-1.20,-3.53,0,0,0
PPG,01/03/2008,34.9,34.9,33.7,34.0,8200,37.60,30.80,34.2,-0.20,-0.58,0,0,0
PPG,01/02/2008,34.9,34.9,33.8,34.2,28900,38.10,31.30,34.7,-0.50,-1.44,0,0,0
PPG,12/28/2007,35.0,35.0,34.5,34.7,11000,38.30,31.50,34.9,-0.20,-0.57,0,0,0
PPG,12/27/2007,35.0,35.3,34.7,34.9,8400,38.60,31.60,35.1,-0.20,-0.57,0,0,0
PPG,12/26/2007,34.1,35.5,34.1,35.1,21600,38.10,31.30,34.7,0.40,1.15,0,0,0
PPG,12/25/2007,34.4,35.0,34.3,34.7,19300,38.00,31.20,34.6,0.10,0.29,0,0,0
PPG,12/24/2007,35.0,35.2,34.0,34.6,14900,38.20,31.40,34.8,-0.20,-0.57,0,0,0
PPG,12/21/2007,33.1,35.3,33.0,34.8,20200,37.50,30.70,34.1,0.70,2.05,0,0,0
PPG,12/20/2007,35.5,35.5,33.9,34.1,29700,38.80,31.80,35.3,-1.20,-3.40,0,0,0
PPG,12/19/2007,34.0,36.5,34.0,35.3,32700,37.10,30.50,33.8,1.50,4.44,0,3000,0
PPG,12/18/2007,32.5,35.0,32.2,33.8,19500,36.00,29.60,32.8,1.00,3.05,0,0,0
PPG,12/17/2007,34.0,34.0,32.0,32.8,34900,38.60,31.60,35.1,-2.30,-6.55,0,0,0
PPG,12/14/2007,35.2,35.5,34.6,35.1,11200,38.70,31.70,35.2,-0.10,-0.28,0,0,0
PPG,12/13/2007,36.4,36.4,35.0,35.2,23400,39.90,32.70,36.3,-1.10,-3.03,0,0,3000
PPG,12/12/2007,35.0,37.5,34.6,36.3,50800,37.80,31.00,34.4,1.90,5.52,0,0,0
PPG,12/11/2007,35.0,36.8,34.0,34.4,57200,39.60,32.40,36.0,-1.60,-4.44,0,0,5000
PPG,12/10/2007,37.2,37.2,35.0,36.0,47600,41.50,34.10,37.8,-1.80,-4.76,0,0,0
PPG,12/07/2007,38.0,38.0,37.2,37.8,24300,40.80,33.40,37.1,0.70,1.89,0,600,0
PPG,12/06/2007,37.0,37.5,36.0,37.1,20300,40.70,33.30,37.0,0.10,0.27,0,0,0
PPG,12/05/2007,37.5,37.5,36.5,37.0,28100,42.90,35.10,39.0,-2.00,-5.13,0,0,0
PPG,12/04/2007,38.9,39.6,38.3,39.0,66100,42.50,34.90,38.7,0.30,0.78,0,0,0
PPG,12/03/2007,37.4,39.1,37.4,38.7,33400,41.10,33.70,37.4,1.30,3.48,0,0,0
PPG,11/30/2007,39.5,39.6,36.5,37.4,26000,43.60,35.80,39.7,-2.30,-5.79,0,0,0
PPG,11/29/2007,39.5,40.8,38.3,39.7,72400,41.10,33.70,37.4,2.30,6.15,0,0,3000
PPG,11/28/2007,35.5,38.8,35.5,37.4,156400,38.80,31.80,35.3,2.10,5.95,0,0,3000
PPG,11/27/2007,35.6,37.0,34.3,35.3,40800,37.90,31.10,34.5,0.80,2.32,0,0,0
PPG,11/26/2007,34.3,35.3,33.1,34.5,33800,36.60,30.00,33.3,1.20,3.60,0,0,0
PPG,11/23/2007,34.1,34.5,32.5,33.3,29800,37.40,30.60,34.0,-0.70,-2.06,0,2600,0
PPG,11/22/2007,33.0,34.7,33.0,34.0,27400,35.50,29.10,32.3,1.70,5.26,0,0,3000
PPG,11/21/2007,33.0,33.0,31.6,32.3,17000,36.70,30.10,33.4,-1.10,-3.29,0,0,0
PPG,11/20/2007,33.5,33.9,33.0,33.4,16300,37.20,30.60,33.9,-0.50,-1.47,0,0,0
PPG,11/19/2007,33.4,35.0,33.4,33.9,43700,36.30,29.70,33.0,0.90,2.73,0,0,0
PPG,11/16/2007,32.5,34.0,31.0,33.0,36600,36.80,30.20,33.5,-0.50,-1.49,0,0,0
PPG,11/15/2007,36.0,36.0,33.0,33.5,20400,39.20,32.20,35.7,-2.20,-6.16,0,0,0
PPG,11/14/2007,33.0,35.9,33.0,35.7,84300,35.90,29.50,32.7,3.00,9.17,0,0,0
PPG,11/13/2007,35.3,35.3,32.6,32.7,40400,39.80,32.60,36.2,-3.50,-9.67,0,0,0
PPG,11/12/2007,38.8,39.0,35.1,36.2,34400,42.40,34.80,38.6,-2.40,-6.22,0,0,4000
PPG,11/09/2007,41.0,41.3,37.8,38.6,51900,45.40,37.20,41.3,-2.70,-6.54,0,0,0
PPG,11/08/2007,42.5,42.9,40.5,41.3,23900,46.60,38.20,42.4,-1.10,-2.59,0,0,0
PPG,11/07/2007,40.8,43.0,40.8,42.4,65600,44.30,36.30,40.3,2.10,5.21,0,0,0
PPG,11/06/2007,41.5,41.5,39.9,40.3,42300,45.70,37.50,41.6,-1.30,-3.13,0,0,0
PPG,11/05/2007,41.0,43.0,40.5,41.6,28600,47.70,39.10,43.4,-1.80,-4.15,0,0,0
PPG,11/02/2007,45.0,46.7,42.0,43.4,64500,46.70,38.30,42.5,0.90,2.12,0,0,4000
PPG,11/01/2007,40.0,44.1,39.0,42.5,69000,44.10,36.10,40.1,2.40,5.99,0,0,0
PPG,10/31/2007,40.5,40.5,39.0,40.1,46500,45.90,37.70,41.8,-1.70,-4.07,0,0,0
PPG,10/30/2007,44.0,44.5,40.4,41.8,84400,49.20,40.40,44.8,-3.00,-6.70,0,0,2100
PPG,10/29/2007,47.0,49.0,43.1,44.8,76400,51.90,42.50,47.2,-2.40,-5.08,0,0,3000
PPG,10/26/2007,47.4,47.4,42.0,47.2,173900,47.40,38.80,43.1,4.10,9.51,0,0,4500
PPG,10/25/2007,43.1,43.1,43.1,43.1,35100,43.10,35.30,39.2,3.90,9.95,0,0,2500
PPG,10/24/2007,38.0,40.5,38.0,39.2,140000,41.20,33.80,37.5,1.70,4.53,0,0,5000
PPG,10/23/2007,40.0,40.0,36.5,37.5,39000,43.20,35.40,39.3,-1.80,-4.58,0,0,1100
PPG,10/22/2007,39.0,40.5,38.0,39.3,88100,41.30,33.90,37.6,1.70,4.52,0,0,2600
PPG,10/19/2007,38.5,40.1,34.5,37.6,75200,40.10,32.90,36.5,1.10,3.01,0,0,0
PPG,10/18/2007,40.5,42.2,35.5,36.5,62700,42.20,34.60,38.4,-1.90,-4.95,0,0,0
PPG,10/17/2007,39.2,41.0,35.0,38.4,47000,41.20,33.80,37.5,0.90,2.40,0,0,0
PPG,10/16/2007,37.5,37.5,36.5,37.5,96700,37.50,30.70,34.1,3.40,9.97,0,0,3000
PPG,10/15/2007,32.5,34.4,32.5,34.1,62800,34.40,28.20,31.3,2.80,8.95,0,0,3000
PPG,10/12/2007,31.0,31.8,30.5,31.3,20600,34.30,28.10,31.2,0.10,0.32,0,0,0
PPG,10/11/2007,32.0,32.5,30.5,31.2,35100,35.00,28.80,31.9,-0.70,-2.19,0,0,0
PPG,10/10/2007,32.9,32.9,31.4,31.9,15900,35.70,29.30,32.5,-0.60,-1.85,0,0,0
PPG,10/09/2007,32.7,33.5,32.0,32.5,25600,34.50,28.30,31.4,1.10,3.50,0,0,0
PPG,10/08/2007,30.9,32.5,30.2,31.4,59400,33.10,27.10,30.1,1.30,4.32,0,1000,0
PPG,10/05/2007,31.5,31.8,29.1,30.1,32100,34.80,28.60,31.7,-1.60,-5.05,0,3000,0
PPG,10/04/2007,32.0,33.0,29.0,31.7,30700,35.40,29.00,32.2,-0.50,-1.55,0,0,0
PPG,10/03/2007,35.0,35.0,30.8,32.2,23900,37.20,30.60,33.9,-1.70,-5.01,0,0,0
PPG,10/02/2007,35.7,35.7,32.5,33.9,26000,35.70,29.30,32.5,1.40,4.31,0,0,0
PPG,10/01/2007,29.0,32.8,29.0,32.5,21900,32.80,27.00,29.9,2.60,8.70,0,100,5000
PPG,09/28/2007,28.5,30.5,28.3,29.9,26800,30.80,25.20,28.0,1.90,6.79,0,0,0
PPG,09/27/2007,27.8,28.5,27.2,28.0,13800,31.00,25.40,28.2,-0.20,-0.71,0,200,0
PPG,09/26/2007,29.1,29.1,27.0,28.2,31500,29.10,23.90,26.5,1.70,6.42,0,0,0
PPG,09/25/2007,26.0,26.9,26.0,26.5,21300,26.90,22.10,24.5,2.00,8.16,0,0,6000
PPG,09/24/2007,23.5,26.0,23.5,24.5,23900,26.00,21.40,23.7,0.80,3.38,0,0,0
PPG,09/21/2007,24.0,24.0,23.5,23.7,4400,26.50,21.70,24.1,-0.40,-1.66,0,0,0
PPG,09/20/2007,24.0,24.4,24.0,24.1,21500,25.90,21.30,23.6,0.50,2.12,0,0,0
PPG,09/19/2007,24.0,24.0,23.4,23.6,8200,25.60,21.00,23.3,0.30,1.29,0,0,0
PPG,09/18/2007,24.0,24.0,23.0,23.3,3700,24.90,20.50,22.7,0.60,2.64,0,0,0
PPG,09/17/2007,22.5,23.0,22.1,22.7,9000,24.70,20.30,22.5,0.20,0.89,0,1000,0
PPG,09/14/2007,21.6,23.0,21.6,22.5,6200,25.50,20.90,23.2,-0.70,-3.02,0,0,0
PPG,09/13/2007,24.0,24.0,22.8,23.2,5200,27.60,22.60,25.1,-1.90,-7.57,0,0,0
PPG,09/12/2007,25.8,26.5,22.6,25.1,15900,26.50,21.70,24.1,1.00,4.15,0,0,300
PPG,09/11/2007,23.5,24.8,22.8,24.1,23700,24.80,20.40,22.6,1.50,6.64,0,0,0
PPG,09/10/2007,22.0,23.0,22.0,22.6,23400,23.20,19.00,21.1,1.50,7.11,0,0,0
PPG,09/07/2007,21.0,21.6,20.6,21.1,14200,22.90,18.90,20.9,0.20,0.96,0,0,0
PPG,09/06/2007,21.0,21.0,20.6,20.9,3700,22.60,18.60,20.6,0.30,1.46,0,0,0
PPG,09/05/2007,21.0,21.0,20.5,20.6,2100,22.40,18.40,20.4,0.20,0.98,0,0,0
PPG,09/04/2007,20.2,20.5,20.2,20.4,800,22.10,18.10,20.1,0.30,1.49,0,0,0
PPG,08/31/2007,20.2,20.3,20.1,20.1,3800,22.20,18.20,20.2,-0.10,-0.50,0,0,0
PPG,08/30/2007,20.2,20.5,20.0,20.2,11600,22.20,18.20,20.2,0.00,0.00,0,0,0
PPG,08/29/2007,20.0,20.4,19.8,20.2,4300,22.00,18.00,20.0,0.20,1.00,0,0,0
PPG,08/28/2007,20.1,20.1,20.0,20.0,5300,22.20,18.20,20.2,-0.20,-0.99,0,0,0
PPG,08/27/2007,20.6,20.6,20.1,20.2,11700,22.60,18.60,20.6,-0.40,-1.94,0,0,0
PPG,08/24/2007,20.2,20.7,20.2,20.6,4700,22.40,18.40,20.4,0.20,0.98,0,0,0
PPG,08/23/2007,20.0,21.0,20.0,20.4,6400,22.80,18.80,20.8,-0.40,-1.92,0,0,0
PPG,08/22/2007,21.5,22.0,20.0,20.8,4900,22.30,18.30,20.3,0.50,2.46,0,0,0
PPG,08/21/2007,20.4,20.5,20.1,20.3,9700,22.60,18.60,20.6,-0.30,-1.46,0,0,0
PPG,08/20/2007,20.5,21.5,20.4,20.6,2800,23.10,18.90,21.0,-0.40,-1.90,0,0,0
PPG,08/17/2007,22.0,22.0,20.2,21.0,14100,24.60,20.20,22.4,-1.40,-6.25,0,0,0
PPG,08/16/2007,23.5,23.5,22.3,22.4,4400,24.70,20.30,22.5,-0.10,-0.44,0,0,0
PPG,08/15/2007,22.9,22.9,22.2,22.5,1400,24.80,20.40,22.6,-0.10,-0.44,0,0,0
PPG,08/14/2007,22.9,22.9,22.5,22.6,2900,24.60,20.20,22.4,0.20,0.89,0,0,0
PPG,08/13/2007,22.6,22.6,22.3,22.4,3000,25.30,20.70,22.8,-0.40,-1.75,0,0,0
PPG,08/10/2007,24.0,24.0,22.8,23.0,2300,24.36,22.04,23.2,-0.20,-0.86,0,0,0
PPG,08/09/2007,23.3,23.5,23.0,23.2,2800,25.60,21.00,23.3,-0.10,-0.43,0,0,0
PPG,08/08/2007,23.5,23.7,22.6,23.3,5500,25.10,20.70,22.9,0.40,1.75,0,0,0
PPG,08/07/2007,22.9,22.9,22.9,22.9,100,25.73,23.27,24.5,-1.60,-6.53,0,0,0
PPG,08/06/2007,24.5,24.5,24.5,24.5,100,25.30,20.70,23.0,1.50,6.52,0,0,0
PPG,08/03/2007,23.0,23.0,23.0,23.0,700,25.52,23.09,23.0,0.00,0.00,0,0,0
PPG,08/02/2007,25.0,25.0,23.0,24.3,3000,26.04,23.56,24.8,-0.50,-2.02,0,0,0
PPG,08/01/2007,24.9,24.9,24.5,24.8,1200,25.60,21.00,23.3,1.50,6.44,0,0,0
PPG,07/31/2007,25.0,25.0,23.0,23.3,700,0.00,0.00,23.0,0.30,1.30,0,0,0
PPG,07/30/2007,23.0,23.0,22.8,23.0,2200,25.50,20.90,24.0,-1.00,-4.17,0,0,0
PPG,07/27/2007,24.3,24.3,23.0,23.2,11500,25.83,23.37,24.6,-1.40,-5.69,0,0,0
PPG,07/26/2007,24.5,24.7,24.4,24.6,2900,27.20,22.40,24.8,-0.20,-0.81,0,0,0
PPG,07/25/2007,24.6,25.0,24.6,24.8,3100,27.30,22.50,24.9,-0.10,-0.40,0,0,0
PPG,07/24/2007,25.0,25.1,24.2,24.9,7500,27.80,22.80,25.3,-0.40,-1.58,0,0,0
PPG,07/23/2007,25.7,25.7,25.0,25.3,6200,28.20,23.20,25.7,-0.40,-1.56,0,0,0
PPG,07/20/2007,25.6,25.8,25.5,25.7,7000,28.20,23.20,25.7,0.00,0.00,0,0,0
PPG,07/19/2007,25.8,25.8,25.7,25.7,1700,28.20,23.20,25.7,0.00,0.00,0,0,0
PPG,07/18/2007,26.8,26.8,25.2,25.7,4900,28.30,23.30,25.8,-0.10,-0.39,0,0,0
PPG,07/17/2007,27.0,27.0,25.5,25.8,1400,28.20,23.20,25.7,0.10,0.39,0,0,0
PPG,07/16/2007,26.0,26.0,25.6,25.7,2400,28.80,23.60,26.2,-0.50,-1.91,0,0,0
PPG,07/13/2007,26.8,26.8,26.0,26.2,2200,29.20,24.00,26.6,-0.40,-1.50,0,0,0
PPG,07/12/2007,27.8,27.8,26.5,26.6,4700,29.70,24.30,27.0,-0.40,-1.48,0,0,0
PPG,07/11/2007,27.5,27.5,26.5,27.0,5800,29.40,24.20,26.8,0.20,0.75,0,0,0
PPG,07/10/2007,26.3,27.5,26.3,26.8,6800,28.90,23.70,26.3,0.50,1.90,0,0,0
PPG,07/09/2007,26.4,26.4,26.3,26.3,900,28.70,23.50,26.1,0.20,0.77,0,0,0
PPG,07/06/2007,26.8,27.0,25.0,26.1,6200,29.50,24.30,26.9,-0.80,-2.97,0,0,0
PPG,07/05/2007,27.0,27.0,26.8,26.9,4300,30.80,25.20,28.0,-1.10,-3.93,0,0,0
PPG,07/04/2007,28.0,28.0,28.0,28.0,2600,28.40,23.40,25.9,2.10,8.11,0,0,0
PPG,07/03/2007,25.9,25.9,25.9,25.9,1200,29.50,24.30,26.9,-1.00,-3.72,0,0,0
PPG,07/02/2007,27.1,27.1,26.1,26.9,3300,29.80,24.40,27.1,-0.20,-0.74,0,0,0
PPG,06/29/2007,26.0,28.5,26.0,27.1,5300,30.50,25.10,27.8,-0.70,-2.52,0,0,0
PPG,06/28/2007,30.0,30.0,27.0,28.5,9800,31.30,25.70,28.1,0.40,1.42,0,0,0
PPG,06/27/2007,28.5,28.6,28.3,28.5,10900,31.20,25.60,28.4,0.10,0.35,0,0,0
PPG,06/26/2007,28.9,28.9,28.0,28.4,4300,30.90,25.30,28.1,0.30,1.07,0,0,0
PPG,06/25/2007,28.0,29.0,28.0,28.1,14900,31.10,25.50,28.3,-0.20,-0.71,0,0,0
PPG,06/22/2007,29.0,29.0,27.8,28.3,10000,31.30,25.70,28.5,-0.20,-0.70,0,0,0
PPG,06/21/2007,28.8,28.8,28.5,28.5,7100,32.20,26.40,29.3,-0.80,-2.73,0,0,0
PPG,06/20/2007,29.5,29.5,29.0,29.3,5100,32.50,26.50,29.5,-0.20,-0.68,0,0,0
PPG,06/19/2007,29.6,29.6,29.2,29.5,7300,32.70,26.70,29.7,-0.20,-0.67,0,0,0
PPG,06/18/2007,30.3,30.3,29.6,29.7,6800,33.10,27.10,30.1,-0.40,-1.33,0,0,0
PPG,06/15/2007,30.1,30.5,29.7,30.1,11400,33.20,27.20,30.2,-0.10,-0.33,0,0,0
PPG,06/14/2007,30.1,30.5,30.0,30.2,19600,33.00,27.00,30.0,0.20,0.67,0,0,0
PPG,06/13/2007,30.0,30.0,29.9,30.0,15300,33.00,27.00,30.0,0.00,0.00,0,0,0
PPG,06/12/2007,30.0,30.5,29.8,30.0,14200,33.20,27.20,30.2,-0.20,-0.66,0,0,0
PPG,06/11/2007,30.5,30.5,30.0,30.2,4600,34.10,27.90,31.0,-0.80,-2.58,0,0,0
PPG,06/08/2007,32.0,32.0,30.5,31.0,10700,35.00,28.60,31.8,-0.80,-2.52,0,0,0
PPG,06/07/2007,31.5,33.0,31.5,31.8,5700,34.00,27.80,30.9,0.90,2.91,0,0,0
PPG,06/06/2007,30.5,31.0,30.5,30.9,24300,33.50,27.50,30.5,0.40,1.31,0,0,0
PPG,06/05/2007,30.0,31.0,30.0,30.5,13400,34.10,27.90,31.0,-0.50,-1.61,0,0,0
PPG,06/04/2007,31.0,31.5,30.5,31.0,17300,34.70,28.30,31.5,-0.50,-1.59,0,0,0
PPG,06/01/2007,32.0,32.2,31.0,31.5,16900,34.50,28.30,31.4,0.10,0.32,0,0,0
PPG,05/31/2007,31.0,32.0,31.0,31.4,17200,34.30,28.10,31.2,0.20,0.64,0,0,0
PPG,05/30/2007,31.2,31.9,31.0,31.2,4500,34.80,28.40,31.6,-0.40,-1.27,0,0,0
PPG,05/29/2007,31.5,32.3,31.0,32.1,10900,35.30,28.90,32.1,0.00,0.00,0,0,0
PPG,05/28/2007,34.0,34.0,31.0,32.1,25800,36.70,30.10,33.4,-1.30,-3.89,0,0,0
PPG,05/25/2007,33.0,34.0,32.7,33.4,6600,38.20,31.20,34.7,-1.30,-3.75,0,0,0
PPG,05/24/2007,36.0,36.0,32.7,34.7,1500,39.70,32.50,36.1,-1.40,-3.88,0,0,0
PPG,05/23/2007,36.0,37.0,35.0,36.1,21800,38.80,31.80,35.3,0.80,2.27,0,0,0
PPG,05/22/2007,35.0,36.6,34.4,35.3,23400,36.60,30.00,33.3,2.00,6.01,0,0,0
PPG,05/21/2007,32.5,34.0,32.1,33.3,24300,35.30,28.90,32.1,1.20,3.74,0,0,0
PPG,05/18/2007,32.5,33.0,31.7,32.1,19500,35.90,29.30,32.6,-0.50,-1.53,0,0,0
PPG,05/17/2007,33.0,33.0,30.6,32.6,5600,37.30,30.50,33.9,-1.30,-3.83,0,0,0
PPG,05/16/2007,34.2,36.7,31.5,33.9,27000,37.00,30.20,33.6,0.30,0.89,0,0,0
PPG,05/15/2007,31.6,33.8,31.6,30.8,46200,33.90,27.70,30.8,0.00,0.00,0,0,0
PPG,05/14/2007,30.0,31.6,30.0,30.8,24700,31.70,25.90,28.8,2.00,6.94,0,0,0
PPG,05/11/2007,29.0,29.5,28.0,28.8,8800,31.30,25.70,28.5,0.30,1.05,0,0,0
PPG,05/10/2007,29.0,29.0,28.1,28.5,6400,32.30,26.50,29.4,-0.90,-3.06,0,0,0
PPG,05/09/2007,30.0,30.0,28.5,29.4,11700,32.80,26.80,29.8,-0.40,-1.34,0,0,0
PPG,05/08/2007,32.0,32.0,29.0,29.8,23800,32.10,26.30,29.2,0.60,2.05,0,0,0
PPG,05/07/2007,29.0,29.5,29.0,29.2,5000,31.80,26.00,28.9,0.30,1.04,0,0,0
PPG,05/04/2007,29.0,29.1,27.6,28.9,4700,31.50,25.70,28.6,0.30,1.05,0,0,0
PPG,05/03/2007,27.2,29.0,27.2,28.6,2100,33.20,27.20,30.2,-1.60,-5.30,0,0,0
PPG,05/02/2007,31.0,31.0,30.0,30.2,600,33.30,27.30,30.3,-0.10,-0.33,0,0,0
PPG,04/25/2007,30.0,30.5,30.0,30.3,11300,31.50,25.70,28.6,1.70,5.94,0,0,0
PPG,04/24/2007,28.0,29.0,28.0,28.6,5700,31.10,25.50,28.3,0.30,1.06,0,0,0
PPG,04/23/2007,29.0,29.0,28.0,28.3,7400,31.70,25.90,28.8,-0.50,-1.74,0,0,0
PPG,04/20/2007,29.0,29.4,28.4,28.8,8400,34.10,27.90,31.0,-2.20,-7.10,0,0,0
PPG,04/19/2007,31.4,31.4,30.0,31.0,19700,31.50,25.70,28.6,2.40,8.39,0,0,0
PPG,04/18/2007,27.5,29.8,27.2,28.6,4500,29.80,24.40,27.1,1.50,5.54,0,0,0
PPG,04/17/2007,27.4,27.4,26.6,27.1,12000,32.00,26.20,29.1,-2.00,-6.87,0,0,0
PPG,04/16/2007,30.2,30.5,28.1,29.1,17200,34.30,28.10,31.2,-2.10,-6.73,0,0,0
PPG,04/13/2007,32.9,32.9,31.0,31.2,15300,36.20,29.60,32.9,-1.70,-5.17,0,0,0
PPG,04/12/2007,33.2,34.0,32.3,32.9,6000,37.80,31.00,34.4,-1.50,-4.36,0,0,0
PPG,04/11/2007,35.0,35.0,34.0,34.4,4800,39.30,32.10,35.7,-1.30,-3.64,0,0,0
PPG,04/10/2007,37.2,37.2,35.0,35.7,10100,40.90,33.50,37.2,-1.50,-4.03,0,0,0
PPG,04/09/2007,38.0,38.5,37.0,37.2,5100,41.30,33.70,37.5,-0.30,-0.80,0,0,0
PPG,04/06/2007,37.8,37.8,37.4,37.5,2500,41.50,33.90,37.7,-0.20,-0.53,0,0,0
PPG,04/05/2007,38.1,38.2,37.0,37.7,6000,38.80,31.80,35.3,2.40,6.80,0,0,0
PPG,04/04/2007,35.7,38.7,35.0,35.3,12500,38.70,31.70,35.2,0.10,0.28,0,0,0
PPG,04/03/2007,33.6,36.0,33.6,35.2,19100,40.90,33.50,37.2,-2.00,-5.38,0,0,0
PPG,04/02/2007,41.9,41.9,37.1,37.2,17400,45.30,37.10,41.2,-4.00,-9.71,0,0,0
PPG,03/30/2007,41.4,41.4,40.0,41.2,39300,0.00,0.00,37.7,3.50,9.28,0,0,0
PPG,03/29/2007,38.0,38.0,37.0,37.7,41000,38.10,31.10,34.6,3.10,8.96,0,0,0
PPG,03/28/2007,34.5,38.0,31.5,34.6,42900,38.30,31.30,34.8,-0.20,-0.57,0,0,0
PPG,03/27/2007,34.5,37.0,34.5,34.8,7200,0.00,0.00,38.3,-3.50,-9.14,0,0,0
PPG,03/26/2007,41.0,41.0,37.5,38.3,16800,0.00,0.00,41.0,-2.70,-6.59,0,0,0
PPG,03/23/2007,44.0,45.0,40.0,41.0,25500,48.40,39.60,44.0,-3.00,-6.82,0,0,0
PPG,03/22/2007,46.5,47.5,41.9,44.0,17600,51.10,41.90,46.5,-2.50,-5.38,0,0,0
PPG,03/21/2007,50.0,51.0,44.5,46.5,22800,53.60,43.80,48.7,-2.20,-4.52,0,0,0
PPG,03/20/2007,53.3,53.3,44.0,48.7,77500,53.30,43.70,48.5,0.20,0.41,0,0,0
PPG,03/19/2007,48.5,48.5,48.4,48.5,79400,48.50,39.70,44.1,4.40,9.98,0,0,0
PPG,03/16/2007,43.2,46.0,43.2,44.1,95700,52.70,43.10,47.9,-3.80,-7.93,0,0,0
PPG,03/15/2007,47.9,47.9,47.9,47.9,700,58.50,47.90,53.2,-5.30,-9.96,0,0,0
PPG,03/14/2007,57.0,57.0,52.6,53.2,12400,0.00,0.00,58.4,-5.20,-8.90,0,0,0
PPG,03/13/2007,61.0,61.0,55.0,58.9,58400,61.10,49.90,55.5,3.40,6.13,0,0,0
PPG,03/12/2007,55.5,55.5,55.5,55.5,27600,55.50,45.50,50.5,5.00,9.90,0,0,0
PPG,03/09/2007,50.6,50.6,46.9,50.5,98500,50.60,41.40,46.0,4.50,9.78,0,0,0
PPG,03/08/2007,45.9,46.8,42.6,46.0,99800,46.90,38.30,42.6,3.40,7.98,0,0,0
PPG,03/07/2007,41.5,44.8,40.8,42.6,65300,44.90,36.70,40.8,1.80,4.41,0,0,0
PPG,03/06/2007,42.0,42.5,38.0,40.8,41200,46.00,37.60,41.8,-1.00,-2.39,0,0,0
PPG,03/05/2007,44.0,45.5,40.0,41.8,23400,46.70,38.30,42.5,-0.70,-1.65,0,0,0
PPG,03/02/2007,45.3,45.3,40.5,42.5,25600,0.00,0.00,41.2,1.30,3.16,0,0,0
PPG,03/01/2007,41.4,41.4,40.0,41.2,44600,41.50,33.90,37.7,3.50,9.28,0,0,0
PPG,02/28/2007,37.7,37.7,37.7,37.7,34700,37.70,30.90,34.3,3.40,9.91,0,0,0
PPG,02/27/2007,34.2,34.7,33.0,34.3,33900,34.80,28.40,31.6,2.70,8.54,0,0,0
PPG,02/26/2007,34.5,35.9,30.0,31.6,29600,36.20,29.60,32.9,-1.30,-3.95,0,0,0
PPG,02/15/2007,34.0,34.2,31.0,32.9,8800,34.30,28.10,31.2,1.70,5.45,0,0,0
PPG,02/14/2007,33.7,33.9,30.0,31.2,15800,34.00,27.80,30.9,0.30,0.97,0,0,0
PPG,02/13/2007,33.9,34.1,29.5,30.9,5500,34.30,28.10,31.2,-0.30,-0.96,210000,0,0
PPG,02/12/2007,33.6,33.8,28.1,31.2,4200,34.30,28.10,31.2,0.00,0.00,0,0,0
PPG,02/09/2007,32.4,32.7,29.5,31.2,2600,34.50,28.30,31.4,-0.20,-0.64,0,0,0
PPG,02/08/2007,33.6,34.0,30.5,31.4,8400,34.80,28.40,31.6,-0.20,-0.63,0,0,0
PPG,02/07/2007,33.6,33.6,30.5,31.6,1500,35.50,29.10,32.3,-0.70,-2.17,0,0,0
PPG,02/06/2007,32.4,33.0,30.0,32.3,5200,35.00,28.60,31.8,0.50,1.57,0,0,0
PPG,02/05/2007,32.4,32.4,31.5,31.8,2600,34.30,28.10,31.2,0.60,1.92,0,0,0
PPG,02/02/2007,31.0,31.5,31.0,31.2,1500,36.90,30.10,33.5,-2.30,-6.87,0,0,0
PPG,02/01/2007,34.9,34.9,31.5,33.5,1400,38.40,31.40,34.9,-1.40,-4.01,0,0,0
PPG,01/31/2007,0.0,0.0,0.0,34.9,0,38.40,31.40,34.9,0.00,0.00,0,0,0
PPG,01/30/2007,34.8,35.0,34.8,34.9,700,38.40,31.40,34.9,0.00,0.00,0,0,0
PPG,01/29/2007,34.5,35.0,34.5,34.9,700,37.50,30.70,34.1,0.80,2.35,0,0,0
PPG,01/26/2007,34.6,34.8,34.6,34.6,500,34.90,28.50,31.7,2.90,9.15,0,0,0
PPG,01/25/2007,34.6,34.6,30.2,31.7,1500,36.90,30.10,33.5,-1.80,-5.37,0,0,0
PPG,01/24/2007,35.7,35.7,29.5,33.5,1200,35.70,29.30,32.5,1.00,3.08,0,0,0
PPG,01/23/2007,33.4,33.8,30.0,32.5,1800,36.20,29.60,32.9,-0.40,-1.22,0,0,0
PPG,01/22/2007,33.5,33.5,32.0,32.9,500,0.00,0.00,31.3,1.60,5.11,0,0,0
PPG,01/19/2007,33.5,33.5,29.7,31.3,700,36.20,29.60,32.9,-1.60,-4.86,0,0,0
PPG,01/18/2007,34.2,34.2,31.1,32.9,1000,37.40,30.60,34.0,-1.10,-3.24,0,0,0
PPG,01/17/2007,34.0,34.0,34.0,34.0,400,34.90,28.50,31.7,2.30,7.26,0,0,0
PPG,01/16/2007,34.2,34.2,30.0,31.7,500,34.70,28.30,31.5,0.20,0.63,0,0,0
PPG,01/15/2007,31.5,31.5,31.5,31.5,1100,38.50,31.50,35.0,-3.50,-10.00,0,0,0
PPG,01/12/2007,35.0,35.0,35.0,35.0,100,37.60,30.80,34.2,0.80,2.34,0,0,0
PPG,01/11/2007,0.0,0.0,0.0,34.2,0,37.60,30.80,34.2,0.00,0.00,0,0,0
PPG,01/10/2007,34.2,34.2,34.2,34.2,200,37.30,30.50,33.9,0.30,0.88,0,0,0
PPG,01/09/2007,34.0,34.0,33.5,33.9,500,34.70,28.30,31.5,2.40,7.62,0,0,0
PPG,01/08/2007,31.5,31.5,31.5,31.5,1000,38.20,31.20,34.7,-3.20,-9.22,0,0,0
PPG,01/05/2007,34.7,34.7,34.7,34.7,100,42.30,34.70,38.5,-3.80,-9.87,0,0,0
PPG,01/04/2007,0.0,0.0,0.0,38.5,0,42.30,34.70,38.5,0.00,0.00,0,0,0
PPG,01/03/2007,38.5,38.5,38.5,38.5,100,41.90,34.30,38.1,0.40,1.05,0,0,0
PPG,01/02/2007,0.0,0.0,0.0,38.1,0,0.00,0.00,38.1,0.00,0.00,0,0,0
PPG,12/29/2006,0.0,0.0,0.0,38.1,0,41.90,34.30,38.1,0.00,0.00,0,0,0
PPG,12/28/2006,0.0,0.0,0.0,38.1,0,0.00,0.00,38.1,0.00,0.00,0,0,0
PPG,12/27/2006,38.1,38.1,38.1,38.1,100,46.50,38.10,42.3,-4.20,-9.93,0,0,0
PPG,12/26/2006,42.3,42.3,42.3,42.3,100,51.60,42.20,46.9,-4.60,-9.81,0,0,0
PPG,12/25/2006,46.9,46.9,46.9,46.9,100,57.30,46.90,52.1,-5.20,-9.98,0,0,0
PPG,12/22/2006,0.0,0.0,0.0,52.1,0,57.30,46.90,52.1,0.00,0.00,0,0,0
PPG,12/21/2006,53.3,53.3,48.0,52.1,1400,53.30,43.70,48.5,3.60,7.42,0,0,0
PPG,12/20/2006,48.5,48.5,48.5,48.5,700,0.00,0.00,0.0,48.50,0.00,0,0,0
